CpuMaxMemory,EpLenMean,EpRewMean,GpuMaxMemory,IPS_total,Iter,Misc/FrameRewMean,Misc/InteractCount,Misc/TimeElapsed,Opt/approxkl,Opt/clipfrac,Opt/entropy,Opt/loss_pi,Opt/loss_vf,Opt/negent,Opt/pg,Opt/pi_kl,VFStats/AdvMean,VFStats/AdvStd,VFStats/EV,VFStats/VpredMean,VFStats/VpredStd,VFStats/VtargMean,VFStats/VtargStd,del_time,wait_optimization,scaled/pol_distance,scaled/vf_aux,scaled/vf_true,unscaled/pol_distance,unscaled/vf_aux,unscaled/vf_true
5995834000.0,149.52941176470588,2.941176414489746,2788097024.0,11787.81561159685,0.0,0.00152587890625,32768.0,2.779827117919922,0.004507892532274127,0.029693603515625,2.7043817043304443,-0.026433879043906927,0.07947960123419762,-0.02704381477087736,0.0006099408492445946,0.0,0.03157835640013218,0.39105498790740967,0.002337193623441758,-0.06143924407660961,0.014237872790545225,-0.029860885813832283,0.3915790021419525,2.779827117919922,0.8149961233139038,,,,,,
6214328000.0,301.8780487804878,3.2926828861236572,2990685696.0,11721.7409009129,1.0,0.0067138671875,65536.0,5.575316309928894,0.0036583656910806894,0.034149169921875,2.6942166090011597,-0.02723648212850094,0.336675189435482,-0.02694216649979353,-0.0002943165600299835,0.0,0.12841059267520905,0.7963466644287109,0.0003141699357123162,-0.021448712795972824,0.0159916914999485,0.10696188174188137,0.7965007722377777,2.795489192008972,0.8133848905563354,,,,,,
6430128000.0,345.4071856287425,4.01197624206543,2990685696.0,12327.395614059906,2.0,0.01220703125,98304.0,8.233460903167725,0.002700235927477479,0.015045166015625,2.6872572898864746,-0.027702264487743378,0.5725346207618713,-0.026872574351727962,-0.0008296957239508629,0.0,0.2182682454586029,1.0580907464027405,0.002556782904330257,0.06103793904185295,0.017461572773754597,0.27930618822574615,1.0594333410263062,2.6581445932388306,0.7916945219039917,,,,,,
6660222000.0,353.45,4.449999809265137,2990685696.0,12190.369853204356,3.0,0.0189208984375,131072.0,10.921484351158142,0.005819141864776611,0.08203125,2.654642701148987,-0.025677563156932592,0.831244707107544,-0.026546424254775047,0.0008688606321811676,0.0,0.31744541227817535,1.282622754573822,0.002565374943120702,0.29301032423973083,0.04744410701096058,0.6104557514190674,1.2842767834663391,2.6880234479904175,0.797559380531311,,,,,,
6876100000.0,280.62,3.799999952316284,2990685696.0,12033.14388553617,4.0,0.013427734375,163840.0,13.644629716873169,0.0018283899989910424,0.0025634765625,2.6991140842437744,-0.025803565979003906,0.5988333225250244,-0.026991141960024834,0.0011875750496983528,0.0,0.20757019519805908,1.0643627643585205,0.011171065824265414,0.370498463511467,0.057790251448750496,0.5780686438083649,1.070328712463379,2.723145365715027,0.8008573055267334,,,,,,
7084256000.0,265.97,3.75,2990685696.0,12045.100188823251,5.0,0.00885009765625,196608.0,16.365072011947632,0.004995307652279735,0.07012939453125,2.686297297477722,-0.02747305855154991,0.425282821059227,-0.026862972415983677,-0.0006100870668888092,0.0,0.13804934173822403,0.8697752952575684,0.006750782193298055,0.36787959933280945,0.06235028617084026,0.5059289634227753,0.8726604878902435,2.720442295074463,0.8021605014801025,,,,,,
7295930000.0,300.41,4.050000190734863,2990685696.0,12068.253901274704,6.0,0.01708984375,229376.0,19.080294966697693,0.0011091489577665925,0.000518798828125,2.679784655570984,-0.0274138362146914,0.735052764415741,-0.02679784782230854,-0.0006159860640764236,0.0,0.25107304751873016,1.1836870908737183,0.014821032730566008,0.7728395462036133,0.12423472851514816,1.0239126086235046,1.1920666098594666,2.715222954750061,0.7993594408035278,,,,,,
7513140000.0,235.88,3.8499999046325684,2990685696.0,11721.348531930056,7.0,0.02197265625,262144.0,21.875877737998962,0.00451009813696146,0.0504150390625,2.6355422735214233,-0.028230184223502874,0.8731963634490967,-0.026355421170592308,-0.0018747635185718536,0.0,0.2931685075163841,1.3087401986122131,0.016861744660048417,1.0115058422088623,0.16127120703458786,1.3046742677688599,1.3203386664390564,2.7955827713012695,0.7975063323974609,,,,,,
7731676000.0,150.11,4.099999904632568,2990685696.0,12252.995024067963,8.0,0.03204345703125,294912.0,24.55016267299652,0.0054194084368646145,0.04058837890625,2.5879383087158203,-0.02639866154640913,1.1393006443977356,-0.02587938215583563,-0.0005192798562347889,0.0,0.37332868576049805,1.5032252669334412,0.04240021244442771,1.3745867013931274,0.2062380090355873,1.7479154467582703,1.535960853099823,2.6742849349975586,0.7884211540222168,,,,,,
7945950000.0,127.275,4.300000190734863,2990685696.0,12046.228233906817,9.0,0.03326416015625,327680.0,27.270350217819214,0.00147177092730999,0.00067138671875,2.6333364248275757,-0.02607579156756401,1.2113803029060364,-0.02633336279541254,0.0002575712278485298,0.0,0.36703087389469147,1.512849509716034,0.03853612663298778,1.443947196006775,0.2032439187169075,1.8109780550003052,1.5425719618797302,2.720187544822693,0.7957725524902344,,,,,,
8153500000.0,116.95,4.699999809265137,2990685696.0,11124.79805019845,10.0,0.03753662109375,360448.0,30.21584188938141,0.002723477780818939,0.02655029296875,2.587855100631714,-0.026542791165411472,1.2293018102645874,-0.025878550484776497,-0.0006642397493124008,0.0,0.36539214849472046,1.5499520897865295,0.05905433810286975,1.8855324983596802,0.30927489697933197,2.250924587249756,1.5968252420425415,2.945491671562195,0.82131028175354,,,,,,
8357776000.0,117.44,4.849999904632568,2990685696.0,12131.09801474162,11.0,0.0396728515625,393216.0,32.916998863220215,0.004234593128785491,0.039031982421875,2.5671353340148926,-0.026685445569455624,1.2326804995536804,-0.02567135263234377,-0.001014096662402153,0.0,0.36996954679489136,1.5436623692512512,0.06670851730777194,2.1283204555511475,0.3450542837381363,2.498289942741394,1.5977641940116882,2.701156973838806,0.7946085929870605,,,,,,
8560632000.0,115.62,5.050000190734863,2990685696.0,11806.97928659699,12.0,0.0457763671875,425984.0,35.69230651855469,0.000816811720142141,0.00018310546875,2.598060369491577,-0.025726488209329545,1.3655314445495605,-0.025980602949857712,0.0002541160210967064,0.0,0.40434807538986206,1.6112121939659119,0.0754662030013824,2.219882011413574,0.37802666425704956,2.6242305040359497,1.676211178302765,2.7753076553344727,0.8151727914810181,,,,,,
8766060000.0,106.385,3.9000000953674316,2990685696.0,11735.233521437205,13.0,0.040283203125,458752.0,38.48458158969879,0.0033189437817782164,0.02587890625,2.5242727994918823,-0.02533550839871168,1.2405204772949219,-0.025242727249860764,-9.277928620576859e-05,0.0,0.21204976737499237,1.5421897172927856,0.07368883339406695,2.705997586250305,0.3905852138996124,2.9180474281311035,1.6020432114601135,2.792275071144104,0.8058415651321411,,,,,,
8967552000.0,96.425,4.800000190734863,2990685696.0,12151.73171993185,14.0,0.05157470703125,491520.0,41.18115198612213,0.0017109683249145746,0.0018310546875,2.568484663963318,-0.026048325933516026,1.5157414674758911,-0.025684845633804798,-0.00036348216235637665,0.0,0.32183997333049774,1.6953216195106506,0.07861442679335284,2.794004797935486,0.45710237324237823,3.1158448457717896,1.765651285648346,2.69657039642334,0.7956137657165527,,,,,,
9167862000.0,96.405,4.949999809265137,2990685696.0,11835.512977887025,15.0,0.04852294921875,524288.0,43.94976878166199,0.003310017636977136,0.016571044921875,2.545382499694824,-0.025911547243595123,1.3986979126930237,-0.025453821755945683,-0.0004577208310365677,0.0,0.33198902010917664,1.6487720608711243,0.10201192615113364,2.721249580383301,0.49365055561065674,3.0532386302948,1.7406777143478394,2.768616795539856,0.8128151893615723,,,,,,
9370170000.0,90.955,4.650000095367432,2990685696.0,11790.594688227462,16.0,0.050048828125,557056.0,46.72893309593201,0.002092658309265971,0.00579833984375,2.525523066520691,-0.025139372795820236,1.408111035823822,-0.025255228392779827,0.00011585652828216553,0.0,0.2524206191301346,1.6710798740386963,0.10558500623000189,3.0760185718536377,0.5532945692539215,3.328439235687256,1.7667980790138245,2.7791643142700195,0.7912936210632324,,,,,,
9569288000.0,83.3,4.5,2990685696.0,11514.329160043319,17.0,0.05126953125,589824.0,49.57477843761444,0.0019917748868465424,0.005645751953125,2.4705923795700073,-0.02504909783601761,1.4089596271514893,-0.024705921299755573,-0.0003431718796491623,0.0,0.14596300944685936,1.675719439983368,0.11093582660923884,3.58948290348053,0.6183144450187683,3.735445737838745,1.778698205947876,2.845845341682434,0.7852060794830322,,,,,,
9768772000.0,74.825,5.050000190734863,2990685696.0,11589.651981171864,18.0,0.0677490234375,622592.0,52.40212821960449,0.0036934916861355305,0.02471923828125,2.404193639755249,-0.024540193378925323,1.6765800714492798,-0.024041935801506042,-0.0004982599057257175,0.0,0.2589851915836334,1.8189316391944885,0.12450086546008943,3.8444154262542725,0.6384685933589935,4.103400707244873,1.9439827799797058,2.8273497819900513,0.8098527193069458,,,,,,
9969324000.0,74.65,4.400000095367432,2990685696.0,11996.399088618698,19.0,0.05706787109375,655360.0,55.1336145401001,0.0035239479038864374,0.022308349609375,2.4929500818252563,-0.02465612906962633,1.5752654075622559,-0.024929500184953213,0.0002733711153268814,0.0,0.14066337049007416,1.7310126423835754,0.13312067112749237,3.7285053730010986,0.6220926344394684,3.8691686391830444,1.8582851886749268,2.7314863204956055,0.8037199974060059,,,,,,
10167774000.0,75.38,4.5,2990685696.0,11597.808971131752,20.0,0.0604248046875,688128.0,57.95897579193115,0.0008141396683640778,0.0,2.472981572151184,-0.02470256667584181,1.5218794345855713,-0.024729812517762184,2.7245841920375824e-05,0.0,0.17049121856689453,1.7363375425338745,0.1880643313591832,3.7408090829849243,0.6863505840301514,3.9113004207611084,1.9263234734535217,2.8253612518310547,0.8038384914398193,,,,,,
10365866000.0,75.78,5.199999809265137,2990685696.0,11789.147437491185,21.0,0.0628662109375,720896.0,60.738481283187866,0.0028140873182564974,0.0072021484375,2.432126998901367,-0.02430338878184557,1.5534161925315857,-0.024321269243955612,1.788325607776642e-05,0.0,0.16009722650051117,1.7370445132255554,0.18599107492309375,4.0310218334198,0.7536434531211853,4.191118955612183,1.9254921674728394,2.779505491256714,0.8074989318847656,,,,,,
10565576000.0,77.3,4.300000190734863,2990685696.0,12037.048492611575,22.0,0.062255859375,753664.0,63.46074330806732,0.00260997808072716,0.0064697265625,2.4788124561309814,-0.024286357685923576,1.623847246170044,-0.02478812448680401,0.0005017684306949377,0.0,0.08771618455648422,1.7810150980949402,0.17899533197695605,4.124736785888672,0.7885690033435822,4.21245265007019,1.9654874801635742,2.7222620248794556,0.8151800632476807,,,,,,
10763564000.0,77.155,4.5,2990685696.0,11960.298492578699,23.0,0.05950927734375,786432.0,66.20047426223755,0.0010738375131040812,0.00244140625,2.4938918352127075,-0.02503625489771366,1.5092888474464417,-0.024938917718827724,-9.733811020851135e-05,0.0,0.13552582636475563,1.7279875874519348,0.17824053198184053,3.8652474880218506,0.747380405664444,4.0007734298706055,1.9065340757369995,2.739730954170227,0.7991695404052734,,,,,,
10961504000.0,78.78,4.300000190734863,2990685696.0,12106.88792396458,24.0,0.05828857421875,819200.0,68.90703272819519,0.0039346793200820684,0.020660400390625,2.5272746086120605,-0.02429908374324441,1.606932520866394,-0.025272742845118046,0.0009736595675349236,0.0,0.08647340722382069,1.7132367491722107,0.2004361384379335,4.089281320571899,0.8212034404277802,4.175755023956299,1.9157847166061401,2.7065584659576416,0.8027095794677734,,,,,,
11161210000.0,83.24,4.699999809265137,2990685696.0,11669.3250710297,25.0,0.0555419921875,851968.0,71.71507859230042,0.002389841596595943,0.011077880859375,2.4455615282058716,-0.025205599144101143,1.4977641701698303,-0.024455614387989044,-0.0007499833591282368,0.0,-0.025848246179521084,1.6915586590766907,0.18820024772535493,4.486494064331055,0.8622996509075165,4.460645914077759,1.8766056299209595,2.8080458641052246,0.8047311305999756,,,,,,
11358752000.0,82.135,4.900000095367432,2990685696.0,11907.547337054993,26.0,0.05889892578125,884736.0,74.46694672107697,0.0045529764611274,0.033233642578125,2.4912145137786865,-0.02478816732764244,1.5308840870857239,-0.024912144988775253,0.00012397952377796173,0.0,0.032445717602968216,1.6706019043922424,0.2692928724229209,4.4927074909210205,0.9836016595363617,4.525152683258057,1.9527560472488403,2.7518681287765503,0.7917711734771729,,,,,,
11556194000.0,76.26,4.599999904632568,2990685696.0,12197.0566935842,27.0,0.06256103515625,917504.0,77.15349650382996,0.0028776208637282252,0.024383544921875,2.40657901763916,-0.024261243641376495,1.633284091949463,-0.024065788835287094,-0.0001954524777829647,0.0,-0.11945178732275963,1.7819223999977112,0.26387525053422767,4.961421012878418,1.1062453985214233,4.84196925163269,2.0758397579193115,2.6865497827529907,0.8063726425170898,,,,,,
11755940000.0,87.45,4.699999809265137,2990685696.0,11554.516661652706,28.0,0.05859375,950272.0,79.9894437789917,0.001655660686083138,0.008087158203125,2.482234835624695,-0.024408461060374975,1.4064974784851074,-0.02482234500348568,0.0004138816148042679,0.0,0.12483286112546921,1.6356415748596191,0.32073362724679944,4.350670576095581,1.057437241077423,4.475503444671631,1.985269844532013,2.835947275161743,0.8164135217666626,,,,,,
11953394000.0,78.195,4.599999904632568,2990685696.0,11514.32193172891,29.0,0.06134033203125,983040.0,82.83529090881348,0.0019689020118676126,0.004852294921875,2.4530311822891235,-0.02458102162927389,1.534645438194275,-0.024530312046408653,-5.0710514187812805e-05,0.0,0.032945457845926285,1.706313133239746,0.3882422521230048,4.438894271850586,1.343221664428711,4.471839427947998,2.176763653755188,2.8458471298217773,0.8020142316818237,,,,,,
12150818000.0,97.045,4.75,2990685696.0,12034.98995774207,30.0,0.05035400390625,1015808.0,85.55801856517792,0.0014575160457752645,0.00640869140625,2.5245622396469116,-0.024696950800716877,1.3287819027900696,-0.02524561993777752,0.000548667274415493,0.0,0.11056222766637802,1.5911322236061096,0.38690186581068087,3.784244179725647,1.2709589004516602,3.894806385040283,2.031920313835144,2.722727656364441,0.793033242225647,,,,,,
12350140000.0,94.285,5.449999809265137,2990685696.0,11813.981115185381,31.0,0.05401611328125,1048576.0,88.33168137073517,0.0015145614161156118,0.004547119140625,2.4954888820648193,-0.024702673312276602,1.355483889579773,-0.02495488803833723,0.0002522086724638939,0.0,0.09688922390341759,1.6084348559379578,0.4356127768089517,4.225729942321777,1.4510042071342468,4.322619199752808,2.1418315172195435,2.773662805557251,0.8148189783096313,,,,,,
,,,,,,,,,,,,,,,,,,,,,,,,,,0.019281391985714436,2.1287195682525635,3.98569118976593,0.019281391985714436,2.1287195682525635,3.98569118976593
,,,,,,,,,,,,,,,,,,,,,,,,,,0.0060944221913814545,1.7313387989997864,1.7318302989006042,0.0060944221913814545,1.7313387989997864,1.7318302989006042
,,,,,,,,,,,,,,,,,,,,,,,,,,0.005613558227196336,1.6833720803260803,1.6795187592506409,0.005613558227196336,1.6833720803260803,1.6795187592506409
,,,,,,,,,,,,,,,,,,,,,,,,,,0.005232963943853974,1.6579325795173645,1.6552217602729797,0.005232963943853974,1.6579325795173645,1.6552217602729797
,,,,,,,,,,,,,,,,,,,,,,,,,,0.004725121892988682,1.6292261481285095,1.6279712915420532,0.004725121892988682,1.6292261481285095,1.6279712915420532
,,,,,,,,,,,,,,,,,,,,,,,,,,0.005389997502788901,1.6317601799964905,1.630010724067688,0.005389997502788901,1.6317601799964905,1.630010724067688
12363128000.0,74.7,4.900000095367432,2793537536.0,165.05972390575195,32.0,0.06378173828125,1081344.0,286.8537631034851,0.005718909204006195,0.060760498046875,2.3286874294281006,-0.022265013307332993,1.1080687642097473,-0.023286874406039715,0.001021859236061573,0.0,0.4769834131002426,1.5106201767921448,0.6718501868623807,3.0479204654693604,1.7484416961669922,3.5249037742614746,2.637580633163452,198.52208173274994,0.7866445779800415,,,,,,
12363128000.0,72.315,4.550000190734863,2996126208.0,11809.837270576689,33.0,0.06622314453125,1114112.0,289.62839913368225,0.006171254441142082,0.06866455078125,2.306545853614807,-0.02220961172133684,1.36599999666214,-0.023065458983182907,0.0008558491244912148,0.0,0.3703691065311432,1.641502022743225,0.6479921486360806,3.6780598163604736,2.042254686355591,4.048429012298584,2.7664395570755005,2.7746360301971436,0.7836029529571533,,,,,,
12363128000.0,72.755,5.050000190734863,2996126208.0,11522.18769245149,34.0,0.06622314453125,1146880.0,292.4723035097122,0.005149738630279899,0.04327392578125,2.360694646835327,-0.023692048154771328,1.2628267407417297,-0.02360694669187069,-8.51023942232132e-05,0.0,0.3012726753950119,1.6066020131111145,0.6590517701745328,3.911161184310913,2.043646216392517,4.2124342918396,2.75194251537323,2.8439043760299683,0.7917118072509766,,,,,,
12363128000.0,69.435,5.25,2996126208.0,11757.069872973225,35.0,0.0677490234375,1179648.0,295.2593924999237,0.005083572119474411,0.05059814453125,2.283837676048279,-0.023000597953796387,1.3721577525138855,-0.022838374599814415,-0.0001622270792722702,0.0,0.22710172832012177,1.642456591129303,0.6526351648821442,4.337942838668823,2.0817939043045044,4.565044403076172,2.786173701286316,2.787088990211487,0.7764917612075806,,,,,,
12363128000.0,73.19,5.349999904632568,2996126208.0,11405.791377414596,36.0,0.07904052734375,1212416.0,298.13231897354126,0.004530039615929127,0.050933837890625,2.2529016733169556,-0.02196619939059019,1.4698753952980042,-0.022529015317559242,0.000562816858291626,0.0,0.25333283841609955,1.6382101774215698,0.6368262163929473,4.751868486404419,1.9688925743103027,5.005201578140259,2.707754135131836,2.8729264736175537,0.7905510663986206,,,,,,
12363128000.0,71.31,5.550000190734863,2996126208.0,11611.422729416903,37.0,0.07568359375,1245184.0,300.9543676376343,0.004222771618515253,0.032623291015625,2.260213613510132,-0.02090153656899929,1.546317219734192,-0.022602137178182602,0.0017005996778607368,0.0,0.12553046643733978,1.7261661291122437,0.6198102246362243,4.993955612182617,2.144195318222046,5.119486331939697,2.7988460063934326,2.8220486640930176,0.783644437789917,,,,,,
12363128000.0,67.775,4.949999809265137,2996126208.0,11497.596186801904,38.0,0.08392333984375,1277952.0,303.8043546676636,0.002825048752129078,0.018402099609375,2.113802194595337,-0.020960182417184114,1.8617940545082092,-0.021138020791113377,0.00017784256488084793,0.0,-0.05199982412159443,1.9173849821090698,0.5429768298295112,5.6966869831085205,2.239349365234375,5.644686937332153,2.8371866941452026,2.849987030029297,0.783084511756897,,,,,,
12363128000.0,66.73,5.5,2996126208.0,12018.332616549429,39.0,0.07904052734375,1310720.0,306.53085601329803,0.003374766674824059,0.0174560546875,2.256858706474304,-0.021743638440966606,1.8111764788627625,-0.022568587213754654,0.000824950635433197,0.0,0.028741832822561264,1.8373214602470398,0.5462539376730755,5.150828123092651,1.9876665472984314,5.179569959640503,2.729527235031128,2.7265013456344604,0.7713661193847656,,,,,,
12363128000.0,69.665,5.650000095367432,2996126208.0,11904.03300799563,40.0,0.08087158203125,1343488.0,309.2835365533829,0.002680944395251572,0.01287841796875,2.187421679496765,-0.021975331008434296,1.65386301279068,-0.02187421638518572,-0.00010111555457115173,0.0,0.07903427444398403,1.819770336151123,0.4778857639019387,5.147138833999634,1.8069896697998047,5.226172924041748,2.520025610923767,2.752680540084839,0.791145920753479,,,,,,
12363128000.0,65.815,5.300000190734863,2996126208.0,11863.126536558786,41.0,0.07720947265625,1376256.0,312.0457088947296,0.0017891061143018305,0.007080078125,2.207156181335449,-0.02127053774893284,1.7917963862419128,-0.022071562707424164,0.0008010156452655792,0.0,-0.08122093975543976,1.8618625402450562,0.46016432602321744,5.276146411895752,1.7624024152755737,5.194925308227539,2.531313896179199,2.7621723413467407,0.78251051902771,,,,,,
12363128000.0,62.13,5.949999809265137,2996126208.0,11848.79851456098,42.0,0.08392333984375,1409024.0,314.8112213611603,0.003269449924118817,0.022308349609375,2.05988872051239,-0.02083624806255102,1.7121410965919495,-0.020598887465894222,-0.0002373596653342247,0.0,0.033763643354177475,1.856314778327942,0.44837147932865973,5.432476282119751,1.6941285729408264,5.466240167617798,2.4983909130096436,2.765512466430664,0.7837039232254028,,,,,,
12363128000.0,71.15,5.300000190734863,2996126208.0,11491.10933419981,43.0,0.074462890625,1441792.0,317.66281723976135,0.004283007932826877,0.02947998046875,2.2687175273895264,-0.02142452448606491,1.5854565501213074,-0.022687175311148167,0.0012626508250832558,0.0,0.09543432667851448,1.7613202333450317,0.5062429940007056,4.818971395492554,1.7013838291168213,4.914405822753906,2.5054157972335815,2.851595878601074,0.7914712429046631,,,,,,
12363128000.0,64.56,5.300000190734863,2996126208.0,12135.634897716423,44.0,0.086669921875,1474560.0,320.3629643917084,0.0019049372058361769,0.00543212890625,2.1379597187042236,-0.02154392097145319,1.6360201239585876,-0.02137959562242031,-0.00016432441771030426,0.0,0.1791556030511856,1.7814277410507202,0.5245721399343111,5.179450511932373,1.7518547177314758,5.358605861663818,2.5826046466827393,2.7001471519470215,0.8085975646972656,,,,,,
12363128000.0,67.785,5.550000190734863,2996126208.0,12354.475234826725,45.0,0.0811767578125,1507328.0,323.0152826309204,0.004647872876375914,0.03936767578125,2.2552847862243652,-0.02164439484477043,1.570432424545288,-0.022552846930921078,0.0009084548801183701,0.0,0.14410560578107834,1.7157472968101501,0.5267705858278916,5.008464336395264,1.5891387462615967,5.152570009231567,2.4955109357833862,2.652318239212036,0.7961170673370361,,,,,,
12363128000.0,65.83,5.400000095367432,2996126208.0,11657.45362583757,46.0,0.08056640625,1540096.0,325.8261880874634,0.0046281046234071255,0.03106689453125,2.073109745979309,-0.0210726261138916,1.7790733575820923,-0.02073109894990921,-0.00034152716398239136,0.0,-0.026919154450297356,1.8372139930725098,0.49347376103395724,5.749807596206665,1.7956974506378174,5.722888708114624,2.5809617042541504,2.8109054565429688,0.8088353872299194,,,,,,
12363128000.0,68.645,4.800000190734863,2996126208.0,11695.60936378697,47.0,0.07568359375,1572864.0,328.62792325019836,0.0013682678109034896,0.0052490234375,2.198288679122925,-0.021302300039678812,1.6148576736450195,-0.021982885897159576,0.0006805844604969025,0.0,-0.07090048398822546,1.786699652671814,0.5248707549220717,5.382292747497559,1.804534673690796,5.311392545700073,2.593967080116272,2.8017351627349854,0.8071274757385254,,,,,,
12363128000.0,70.67,5.599999904632568,2996126208.0,11769.14114993764,48.0,0.081787109375,1605632.0,331.4121536016464,0.002312244614586234,0.014434814453125,2.12324059009552,-0.020892519503831863,1.5960410833358765,-0.021232403814792633,0.0003398805856704712,0.0,0.11184166930615902,1.7562114000320435,0.5582260393206451,5.328381538391113,1.8784027695655823,5.440222978591919,2.6353330612182617,2.784230351448059,0.8165843486785889,,,,,,
12363128000.0,68.785,5.900000095367432,2996126208.0,11422.426038295285,49.0,0.07965087890625,1638400.0,334.2808961868286,0.0021410351619124413,0.007598876953125,2.2216626405715942,-0.02223836351186037,1.518788456916809,-0.022216622717678547,-2.1739862859249115e-05,0.0,0.1647193431854248,1.720827877521515,0.5543926582027459,5.147812604904175,1.7962716817855835,5.3125317096710205,2.576563239097595,2.86874258518219,0.8237525224685669,,,,,,
12363128000.0,67.655,5.699999809265137,2996126208.0,11771.709115978638,50.0,0.0762939453125,1671168.0,337.0645191669464,0.0018399159307591617,0.005767822265625,2.2758965492248535,-0.0227431810926646,1.5516833066940308,-0.0227589663118124,1.578405499458313e-05,0.0,0.03204268775880337,1.760631501674652,0.5187702622392388,5.0254127979278564,1.7176296710968018,5.057455778121948,2.5382518768310547,2.783622980117798,0.823989987373352,,,,,,
12363128000.0,73.125,5.550000190734863,2996126208.0,12044.283189510374,51.0,0.07415771484375,1703936.0,339.7851459980011,0.0013453876599669456,0.003997802734375,2.280489921569824,-0.023151913192123175,1.516953706741333,-0.02280490007251501,-0.00034700892865657806,0.0,0.10005141608417034,1.7093586921691895,0.5465206765394888,5.088362216949463,1.7916550636291504,5.188413619995117,2.5380935668945312,2.7206268310546875,0.8086273670196533,,,,,,
12363128000.0,68.785,5.349999904632568,2996126208.0,11618.703237141806,52.0,0.0830078125,1736704.0,342.6054263114929,0.0034675737842917442,0.02093505859375,2.2382848262786865,-0.021653826348483562,1.7086261510849,-0.022382847033441067,0.0007290150970220566,0.0,0.0688416650518775,1.8109525442123413,0.4534406817790245,5.516451120376587,1.6839537024497986,5.585292816162109,2.4504337310791016,2.8202803134918213,0.7803652286529541,,,,,,
12363128000.0,64.665,5.650000095367432,2996126208.0,11642.771032643434,53.0,0.086669921875,1769472.0,345.41987657546997,0.0012800151598639786,0.00164794921875,2.2081104516983032,-0.021891774609684944,1.7645146250724792,-0.0220811041072011,0.00018932577222585678,0.0,-0.05869964323937893,1.880173146724701,0.4426058270970995,5.815087080001831,1.7069427371025085,5.756387233734131,2.5183067321777344,2.814450263977051,0.7742774486541748,,,,,,
12363128000.0,65.485,5.050000190734863,2996126208.0,11356.91018614228,54.0,0.076904296875,1802240.0,348.30516839027405,0.002364695188589394,0.01116943359375,2.295096755027771,-0.0225937245413661,1.7537939548492432,-0.022950967773795128,0.0003572450950741768,0.0,-0.05940855201333761,1.834556221961975,0.493262839961907,5.355156421661377,1.815418004989624,5.295747995376587,2.5749621391296387,2.885291814804077,0.7789216041564941,,,,,,
12363128000.0,65.505,5.650000095367432,2996126208.0,11173.0343374533,55.0,0.0823974609375,1835008.0,351.2379437685013,0.0031048654345795512,0.02001953125,2.255578398704529,-0.023081306368112564,1.7012471556663513,-0.02255578152835369,-0.0005255239084362984,0.0,0.10680750757455826,1.8100327849388123,0.5174755172555812,5.262815952301025,1.88390451669693,5.369623422622681,2.604210138320923,2.932775378227234,0.787509560585022,,,,,,
12363128000.0,68.31,5.050000190734863,2996126208.0,11148.339962685046,56.0,0.07904052734375,1867776.0,354.1772154569626,0.0019310906063765287,0.015716552734375,2.2376973628997803,-0.0215402003377676,1.852384626865387,-0.022376972250640392,0.0008367705158889294,0.0,-0.04874623939394951,1.8914954662322998,0.502211922407741,5.734645366668701,2.036091685295105,5.685899019241333,2.6799410581588745,2.9392716884613037,0.7768048048019409,,,,,,
12363128000.0,66.225,6.050000190734863,2996126208.0,10999.547781452198,57.0,0.0897216796875,1900544.0,357.15624701976776,0.0021424167789518833,0.009246826171875,2.107928514480591,-0.021002560388296843,1.7603642344474792,-0.021079285070300102,7.671862840652466e-05,0.0,-0.05056844279170036,1.8394991755485535,0.5068164290236116,5.92870306968689,1.913160264492035,5.878134727478027,2.619594693183899,2.979031562805176,0.7780873775482178,,,,,,
12363128000.0,62.335,5.949999809265137,2996126208.0,11178.850068971882,58.0,0.08453369140625,1933312.0,360.08749663829803,0.0025642772670835257,0.02197265625,2.185084104537964,-0.02159107755869627,1.8625352382659912,-0.02185084018856287,0.0002597607672214508,0.0,-0.1333950236439705,1.8919440507888794,0.48598339374130817,5.827853441238403,1.7619577646255493,5.694458484649658,2.6351659297943115,2.9312496185302734,0.7881641387939453,,,,,,
12363128000.0,65.66,5.599999904632568,2996126208.0,11467.277292838211,59.0,0.08453369140625,1966080.0,362.94501888751984,0.002735304762609303,0.0111083984375,2.1612942218780518,-0.02163915242999792,1.6349855661392212,-0.021612942218780518,-2.6209279894828796e-05,0.0,0.07254922389984131,1.7903446555137634,0.5073518814804583,5.470168590545654,1.775454580783844,5.542717695236206,2.5507179498672485,2.8575222492218018,0.7883518934249878,,,,,,
12363128000.0,65.82,5.300000190734863,2996126208.0,11437.231619604554,60.0,0.08148193359375,1998848.0,365.81004786491394,0.002107140840962529,0.0098876953125,2.2383769750595093,-0.0217189472168684,1.6382498145103455,-0.02238376811146736,0.0006648204289376736,0.0,0.0875394232571125,1.805681049823761,0.5063056881420118,5.384379863739014,1.830458402633667,5.471919059753418,2.569941759109497,2.865028977394104,0.8058673143386841,,,,,,
12363128000.0,63.645,5.25,2996126208.0,11966.046039904253,61.0,0.081787109375,2031616.0,368.5484628677368,0.0027244252851232886,0.008819580078125,2.1763362884521484,-0.021017763763666153,1.7593965530395508,-0.021763362921774387,0.0007455982267856598,0.0,-0.05736667662858963,1.8323631882667542,0.5107513009989237,5.4838173389434814,1.802731215953827,5.426450490951538,2.6202144622802734,2.738415002822876,0.8000080585479736,,,,,,
12363128000.0,70.99,5.949999809265137,2996126208.0,12049.308864532763,62.0,0.0860595703125,2064384.0,371.26795494556427,0.0018948717624880373,0.007476806640625,2.2189080715179443,-0.022229712456464767,1.5838626027107239,-0.02218907978385687,-4.0626153349876404e-05,0.0,0.16841420531272888,1.7545604705810547,0.5202217919527788,5.281379461288452,1.7366472482681274,5.449793577194214,2.5307480096817017,2.7194920778274536,0.8113415241241455,,,,,,
12363760000.0,64.33,5.650000095367432,2996126208.0,11767.488066800182,63.0,0.0823974609375,2097152.0,374.05257642269135,0.0007801074534654617,0.002532958984375,2.193408489227295,-0.021562882466241717,1.7366632223129272,-0.021934086456894875,0.0003712046891450882,0.0,0.012037195265293121,1.8329245448112488,0.4990552959028529,5.356470108032227,1.7419377565383911,5.368507146835327,2.5898276567459106,2.784621477127075,0.8110494613647461,,,,,,
,,,,,,,,,,,,,,,,,,,,,,,,,,0.0072063368279486895,1.4797635078430176,2.0072197318077087,0.0072063368279486895,1.4797635078430176,2.0072197318077087
,,,,,,,,,,,,,,,,,,,,,,,,,,0.00418113567866385,1.21644788980484,1.2185880541801453,0.00418113567866385,1.21644788980484,1.2185880541801453
,,,,,,,,,,,,,,,,,,,,,,,,,,0.003318783827126026,1.1335362792015076,1.1345530152320862,0.003318783827126026,1.1335362792015076,1.1345530152320862
,,,,,,,,,,,,,,,,,,,,,,,,,,0.002763068303465843,1.0746824741363525,1.0757799744606018,0.002763068303465843,1.0746824741363525,1.0757799744606018
,,,,,,,,,,,,,,,,,,,,,,,,,,0.002736303606070578,1.0380072593688965,1.0386829376220703,0.002736303606070578,1.0380072593688965,1.0386829376220703
,,,,,,,,,,,,,,,,,,,,,,,,,,0.0029860055074095726,1.0183680057525635,1.018782615661621,0.0029860055074095726,1.0183680057525635,1.018782615661621
12364818000.0,63.645,5.300000190734863,2793537536.0,165.39927570583617,64.0,0.0799560546875,2129920.0,572.1671078205109,0.0037879596929997206,0.036590576171875,2.1928441524505615,-0.021800860296934843,1.278134524822235,-0.02192843984812498,0.00012758374214172363,0.0,-0.012004872784018517,1.598350167274475,0.708616364514725,5.3717591762542725,2.229217290878296,5.3597540855407715,2.9614317417144775,198.11453139781952,0.7883337736129761,,,,,,
12364818000.0,63.35,6.050000190734863,2996126208.0,12217.506108774249,65.0,0.0848388671875,2162688.0,574.8491609096527,0.003610150422900915,0.0140380859375,2.1512577533721924,-0.02097218483686447,1.28276789188385,-0.021512579172849655,0.000540394801646471,0.0,0.021521654911339283,1.5943307280540466,0.7205551103236965,5.426741123199463,2.3372496366500854,5.448263168334961,3.0159984827041626,2.6820530891418457,0.7742998600006104,,,,,,
12364818000.0,64.36,5.599999904632568,2996126208.0,11827.61578890058,66.0,0.084228515625,2195456.0,577.6196262836456,0.003127432893961668,0.02313232421875,2.1870962381362915,-0.022002920508384705,1.2971977591514587,-0.02187096420675516,-0.00013195723295211792,0.0,0.03853411413729191,1.6102868914604187,0.7179513368269401,5.400546550750732,2.362266778945923,5.439080715179443,3.0331586599349976,2.77046537399292,0.7951468229293823,,,,,,
12364818000.0,66.495,5.300000190734863,2996126208.0,11799.105434283454,67.0,0.08453369140625,2228224.0,580.3967859745026,0.0025530525017529726,0.02117919921875,2.1427077054977417,-0.02174942009150982,1.445959746837616,-0.021427076309919357,-0.0003223419189453125,0.0,-0.009509097784757614,1.6551806926727295,0.7203572653773382,5.54098105430603,2.5661996603012085,5.531472206115723,3.123869776725769,2.7771596908569336,0.7871043682098389,,,,,,
12364818000.0,71.025,5.25,2996126208.0,12245.49876984421,68.0,0.086669921875,2260992.0,583.0727080106735,0.0039211142575368285,0.046478271484375,2.1107420921325684,-0.020777751691639423,1.365973711013794,-0.021107420325279236,0.0003296695649623871,0.0,-0.03984537161886692,1.6752448081970215,0.6885964733845173,5.866603851318359,2.4343453645706177,5.826758861541748,3.0016708374023438,2.6759220361709595,0.7647149562835693,,,,,,
12364818000.0,68.4,5.75,2996126208.0,11940.397422819135,69.0,0.07965087890625,2293760.0,585.81700527668,0.007643233053386211,0.08551025390625,2.179465651512146,-0.02062039729207754,1.4011064171791077,-0.021794656291604042,0.001174258068203926,0.0,-0.10434141010046005,1.6619881391525269,0.689340361018399,5.79204535484314,2.3820217847824097,5.687704086303711,2.9797533750534058,2.7442972660064697,0.7870849370956421,,,,,,
12364818000.0,62.36,5.599999904632568,2996126208.0,12250.354758253048,70.0,0.0885009765625,2326528.0,588.4918665885925,0.003830810310319066,0.031646728515625,2.1181763410568237,-0.020669225603342056,1.4378094673156738,-0.021181762218475342,0.000512540340423584,0.0,-0.000821942463517189,1.6889265179634094,0.6848998819417182,5.77195405960083,2.403738260269165,5.771132230758667,3.008192300796509,2.6748613119125366,0.7672902345657349,,,,,,
12364818000.0,69.13,5.849999904632568,2996126208.0,12568.152824524568,71.0,0.0860595703125,2359296.0,591.0990914106369,0.005340745206922293,0.048797607421875,2.0316349267959595,-0.01897417940199375,1.526444911956787,-0.02031634747982025,0.0013421672047115862,0.0,0.005591426510363817,1.715927004814148,0.6706507582176497,5.817760467529297,2.4996225833892822,5.823351860046387,2.9899890422821045,2.6072248220443726,0.7727247476577759,,,,,,
12364818000.0,67.575,5.5,2996126208.0,11906.769001112538,72.0,0.08758544921875,2392064.0,593.8511394262314,0.0027229704428464174,0.01983642578125,2.067812919616699,-0.019718144088983536,1.4528213143348694,-0.020678129978477955,0.0009599830955266953,0.0,-0.09798982599750161,1.6709502935409546,0.6896378561310945,5.7268946170806885,2.417793035507202,5.628904819488525,3.0037232637405396,2.7520480155944824,0.7806684970855713,,,,,,
12364818000.0,65.585,5.900000095367432,2996126208.0,12465.692547296989,73.0,0.0848388671875,2424832.0,596.4797940254211,0.0033664441434666514,0.029144287109375,2.135822892189026,-0.020836460404098034,1.4201139211654663,-0.021358229219913483,0.0005217669531702995,0.0,-0.08244742639362812,1.6730409860610962,0.6981844473119072,5.812893867492676,2.484539031982422,5.7304465770721436,3.044149875640869,2.6286545991897583,0.7604689598083496,,,,,,
12364818000.0,64.235,6.650000095367432,2996126208.0,12129.352399385847,74.0,0.08880615234375,2457600.0,599.1813397407532,0.0031996768666431308,0.026519775390625,2.1126530170440674,-0.021227968158200383,1.3851698637008667,-0.021126531064510345,-0.00010143592953681946,0.0,-0.010228523053228855,1.6431544423103333,0.6959988233945251,5.70624852180481,2.428978681564331,5.6960203647613525,2.9808560609817505,2.7015457153320312,0.7680753469467163,,,,,,
12364818000.0,70.48,6.0,2996126208.0,11901.763587559633,75.0,0.08636474609375,2490368.0,601.9345451593399,0.004310402320697904,0.04217529296875,2.050014019012451,-0.01884122285991907,1.5929437279701233,-0.020500139333307743,0.0016589164733886719,0.0,0.05247447080910206,1.7451531887054443,0.6466569454686054,5.710625648498535,2.447922945022583,5.7631003856658936,2.9304157495498657,2.753205418586731,0.7814488410949707,,,,,,
12364818000.0,69.685,6.5,2996126208.0,11619.803907803864,76.0,0.086669921875,2523136.0,604.7545583248138,0.0051854990888386965,0.062255859375,2.054572820663452,-0.01981078553944826,1.5431338548660278,-0.020545728504657745,0.0007349448278546333,0.0,-0.0861808992922306,1.7614874839782715,0.6428795866007218,5.970519065856934,2.437498450279236,5.884337902069092,2.9447021484375,2.820013165473938,0.774388313293457,,,,,,
12364818000.0,74.92,6.150000095367432,2996126208.0,12121.345921674612,77.0,0.08087158203125,2555904.0,607.4578884840012,0.0043807984329760075,0.045013427734375,2.1166322231292725,-0.020636137574911118,1.3187729716300964,-0.021166322752833366,0.0005301870405673981,0.0,0.007311532273888588,1.608855128288269,0.6952215402330519,5.5768256187438965,2.3815886974334717,5.584136962890625,2.895819067955017,2.703330159187317,0.7623639106750488,,,,,,
12364818000.0,73.935,6.25,2996126208.0,11898.723422422361,78.0,0.078125,2588672.0,610.2117973566055,0.002886407310143113,0.0250244140625,2.18329656124115,-0.021500997710973024,1.345030963420868,-0.021832965314388275,0.0003319699317216873,0.0,0.02858148328959942,1.6219788789749146,0.6740057940839203,5.418659210205078,2.313968300819397,5.447240829467773,2.842568278312683,2.75390887260437,0.77170729637146,,,,,,
12364818000.0,75.99,5.75,2996126208.0,12296.011691762982,79.0,0.07568359375,2621440.0,612.8767265081406,0.0033456366509199142,0.0372314453125,2.13042414188385,-0.020711608231067657,1.323617935180664,-0.021304241381585598,0.000592630822211504,0.0,-0.015324920415878296,1.6019895672798157,0.6904352382751,5.532516002655029,2.34445059299469,5.517190933227539,2.8804813623428345,2.664929151535034,0.7622957229614258,,,,,,
12364818000.0,73.245,5.949999809265137,2996126208.0,12249.241109810895,80.0,0.08270263671875,2654208.0,615.5518310070038,0.004352576099336147,0.041168212890625,2.0419042110443115,-0.01967669650912285,1.5967417359352112,-0.020419040694832802,0.0007423441857099533,0.0,-0.05162934958934784,1.745885193347931,0.6526340434179618,5.7952539920806885,2.5013701915740967,5.743624687194824,2.9621427059173584,2.67510449886322,0.7806768417358398,,,,,,
12364818000.0,72.655,6.25,2996126208.0,11667.705848775538,81.0,0.08056640625,2686976.0,618.3602665662766,0.0035582924028858542,0.03582763671875,2.081076145172119,-0.020368429366499186,1.3758466839790344,-0.02081076055765152,0.0004423316568136215,0.0,0.06258255988359451,1.6585232019424438,0.6635666305244448,5.2586510181427,2.3322200775146484,5.321233510971069,2.85952365398407,2.808435559272766,0.807837963104248,,,,,,
12364818000.0,77.16,5.5,2996126208.0,12041.006281059155,82.0,0.0750732421875,2719744.0,621.0816338062286,0.0029490867163985968,0.024139404296875,2.111486792564392,-0.019719929434359074,1.3495108485221863,-0.02111486718058586,0.0013949349522590637,0.0,0.010916132479906082,1.6113722920417786,0.6820702912134736,5.22377347946167,2.3392218351364136,5.234689474105835,2.8566598892211914,2.7213672399520874,0.8207676410675049,,,,,,
12364818000.0,70.425,6.650000095367432,2996126208.0,11737.507546075532,83.0,0.0872802734375,2752512.0,623.8733679056168,0.0028029369423165917,0.0233154296875,2.086647391319275,-0.01946709956973791,1.393520474433899,-0.020866474136710167,0.0013993754982948303,0.0,0.053957631811499596,1.662463665008545,0.66224739078639,5.670200347900391,2.370855689048767,5.724158048629761,2.8611764907836914,2.7917340993881226,0.8088856935501099,,,,,,
12364818000.0,78.165,6.099999904632568,2996126208.0,12067.533882193366,84.0,0.0750732421875,2785280.0,626.5887528657913,0.002432650770060718,0.019561767578125,2.1173447370529175,-0.021073278039693832,1.323721170425415,-0.0211734464392066,0.00010016560554504395,0.0,0.07547273300588131,1.600163996219635,0.6693197896903775,5.353639841079712,2.3706530332565308,5.429112911224365,2.775762438774109,2.7153849601745605,0.7879214286804199,,,,,,
12364818000.0,80.51,6.400000095367432,2996126208.0,11606.516949823972,85.0,0.0830078125,2818048.0,629.4119943380356,0.00408081104978919,0.041839599609375,2.03584623336792,-0.01975722156930715,1.4714837074279785,-0.02035846095532179,0.0006012395024299622,0.0,0.04498066194355488,1.70086008310318,0.6373178468434274,5.798349618911743,2.4268728494644165,5.843330144882202,2.820671558380127,2.8232414722442627,0.8126997947692871,,,,,,
12364818000.0,74.54,6.599999904632568,2996126208.0,11761.107822334407,86.0,0.08697509765625,2850816.0,632.1981264352798,0.006270061945542693,0.07061767578125,2.0157724618911743,-0.017482283525168896,1.5082259774208069,-0.020157725550234318,0.0026754438877105713,0.0,0.009990601800382137,1.7284571528434753,0.6278021577383465,5.7739551067352295,2.383918046951294,5.7839460372924805,2.829790234565735,2.7861320972442627,0.8055957555770874,,,,,,
12364818000.0,65.62,6.300000190734863,2996126208.0,11877.199290053592,87.0,0.089111328125,2883584.0,634.9570260047913,0.00502770533785224,0.051025390625,1.9668697714805603,-0.01826283009722829,1.6573765873908997,-0.0196687001734972,0.0014058677479624748,0.0,-0.023997174575924873,1.8040961623191833,0.614764792921612,5.955879211425781,2.386881709098816,5.931881904602051,2.9055367708206177,2.7588995695114136,0.8201124668121338,,,,,,
12364818000.0,61.895,5.900000095367432,2996126208.0,12068.8160877748,88.0,0.0946044921875,2916352.0,637.6721224784851,0.0027224371442571282,0.022613525390625,1.907650649547577,-0.01867469632998109,1.5664568543434143,-0.019076507538557053,0.00040180888026952744,0.0,0.032408039085567,1.7547146677970886,0.6164343517155706,5.790059804916382,2.261873245239258,5.822468042373657,2.832794427871704,2.7150964736938477,0.8004257678985596,,,,,,
12364818000.0,66.28,6.550000190734863,2996126208.0,12047.355960138757,89.0,0.10162353515625,2949120.0,640.3920553922653,0.0027114739641547203,0.024749755859375,1.8930707573890686,-0.01895521767437458,1.601887285709381,-0.0189307052642107,-2.4508684873580933e-05,0.0,0.04097919166088104,1.7879546880722046,0.6126362410374099,6.029711484909058,2.376875877380371,6.070690870285034,2.8733993768692017,2.7199329137802124,0.8148976564407349,,,,,,
12364818000.0,65.29,6.099999904632568,2996126208.0,12397.420215786235,90.0,0.0958251953125,2981888.0,643.0351859331131,0.0041520914528518915,0.0416259765625,1.9281337261199951,-0.0181887224316597,1.584391713142395,-0.019281337037682533,0.0010926127433776855,0.0,0.042099546641111374,1.760330319404602,0.6201047665619452,5.822576522827148,2.35742449760437,5.864675760269165,2.8466012477874756,2.6431305408477783,0.8054600954055786,,,,,,
12364818000.0,59.2,6.199999809265137,2996126208.0,11959.99145936288,91.0,0.10772705078125,3014656.0,645.7749872207642,0.0032318116864189506,0.027679443359375,1.8644298315048218,-0.016995223239064217,1.764151692390442,-0.018644297495484352,0.0016490798443555832,0.0,0.002362441271543503,1.871569037437439,0.6059014712300277,6.204426527023315,2.4870694875717163,6.206789016723633,2.9821313619613647,2.739801287651062,0.8098369836807251,,,,,,
12364818000.0,62.855,5.900000095367432,2996126208.0,12128.97400649486,92.0,0.0982666015625,3047424.0,648.4766172170639,0.004422971745952964,0.040313720703125,1.709278643131256,-0.015854100696742535,1.9287070035934448,-0.017092786729335785,0.001238684169948101,0.0,-0.022518462035804987,1.9211670756340027,0.543225793906346,6.044609546661377,2.3609758615493774,6.022090911865234,2.843039631843567,2.7016299962997437,0.798550009727478,,,,,,
12364818000.0,62.535,6.050000190734863,2996126208.0,11360.098052394635,93.0,0.09979248046875,3080192.0,651.3610993623734,0.0034577551996335387,0.031646728515625,1.7731343507766724,-0.01698882505297661,1.7047160267829895,-0.01773134246468544,0.0007425155490636826,0.0,0.028459263034164906,1.8425191640853882,0.5745883459617591,6.01705265045166,2.352269411087036,6.045511960983276,2.823476791381836,2.8844821453094482,0.8160924911499023,,,,,,
12364818000.0,60.075,6.25,2996126208.0,11782.3623606194,94.0,0.10711669921875,3112960.0,654.1422054767609,0.0035549828317016363,0.03302001953125,1.6890161037445068,-0.016344684176146984,1.8695688247680664,-0.016890160739421844,0.0005454747006297112,0.0,0.04819318652153015,1.913326382637024,0.5625042905966452,6.155640602111816,2.399524211883545,6.203834056854248,2.892614006996155,2.781106114387512,0.797265887260437,,,,,,
12364924000.0,56.525,6.599999904632568,2996126208.0,11747.452254968248,95.0,0.113525390625,3145728.0,656.9315762519836,0.0036014996003359556,0.0350341796875,1.705575168132782,-0.015866012312471867,1.8371000289916992,-0.0170557526871562,0.00118973758071661,0.0,0.11219440214335918,1.9059874415397644,0.5585812568725605,6.28449821472168,2.400980830192566,6.396692991256714,2.8706018924713135,2.7893707752227783,0.8079345226287842,,,,,,
,,,,,,,,,,,,,,,,,,,,,,,,,,0.016920371912419796,1.3301162719726562,1.367990493774414,0.016920371912419796,1.3301162719726562,1.367990493774414
,,,,,,,,,,,,,,,,,,,,,,,,,,0.013948841486126184,1.2352280616760254,1.2380040884017944,0.013948841486126184,1.2352280616760254,1.2380040884017944
,,,,,,,,,,,,,,,,,,,,,,,,,,0.013398132752627134,1.1948379874229431,1.1963616609573364,0.013398132752627134,1.1948379874229431,1.1963616609573364
,,,,,,,,,,,,,,,,,,,,,,,,,,0.013363489881157875,1.1679826378822327,1.1689603328704834,0.013363489881157875,1.1679826378822327,1.1689603328704834
,,,,,,,,,,,,,,,,,,,,,,,,,,0.014336623717099428,1.1570208668708801,1.1577545404434204,0.014336623717099428,1.1570208668708801,1.1577545404434204
,,,,,,,,,,,,,,,,,,,,,,,,,,0.013640755321830511,1.1316025257110596,1.1320405006408691,0.013640755321830511,1.1316025257110596,1.1320405006408691
12365076000.0,59.51,6.800000190734863,2793537536.0,168.93298614882252,96.0,0.10986328125,3178496.0,850.9019827842712,0.0036461433628574014,0.031707763671875,1.6690716743469238,-0.01583392219617963,1.4416574835777283,-0.01669071614742279,0.0008567958138883114,0.0,0.011492591351270676,1.689540445804596,0.7164085069759669,5.959528207778931,2.677157402038574,5.9710211753845215,3.1725590229034424,193.9704065322876,0.7855947017669678,,,,,,
12365076000.0,65.215,6.949999809265137,2996126208.0,11767.908223465884,97.0,0.1019287109375,3211264.0,853.6865048408508,0.003732934477739036,0.034759521484375,1.717950701713562,-0.015438250731676817,1.390550434589386,-0.017179506830871105,0.001741255633533001,0.0,0.1056678295135498,1.6420244574546814,0.7136549946629478,5.981021404266357,2.6582489013671875,6.086689233779907,3.070396065711975,2.78452205657959,0.7828344106674194,,,,,,
12365076000.0,69.08,6.599999904632568,2996126208.0,12193.850830681546,98.0,0.1007080078125,3244032.0,856.3737609386444,0.00565475644543767,0.060760498046875,1.7337021827697754,-0.01627239491790533,1.282617211341858,-0.017337022349238396,0.001064626732841134,0.0,0.08336186781525612,1.5890508890151978,0.7268861760899186,5.95186710357666,2.653596043586731,6.035228729248047,3.040176749229431,2.687256097793579,0.7702856063842773,,,,,,
12365076000.0,69.72,5.949999809265137,2996126208.0,12528.969917757211,99.0,0.09246826171875,3276800.0,858.9891395568848,0.003949985955841839,0.0400390625,1.7395381927490234,-0.016296868678182364,1.3351213932037354,-0.017395381815731525,0.0010985117405653,0.0,-0.06274877488613129,1.6327022910118103,0.712654061357447,5.825327634811401,2.6405895948410034,5.762578964233398,3.0444600582122803,2.6153786182403564,0.7713819742202759,,,,,,
12365076000.0,64.19,6.699999809265137,2996126208.0,11948.831376066286,100.0,0.09185791015625,3309568.0,861.7314997911453,0.005223235348239541,0.053955078125,1.7118163108825684,-0.014604829251766205,1.2338391542434692,-0.017118163406848907,0.0025133267045021057,0.0,-0.0434325747191906,1.5497651100158691,0.7302590806702962,5.8806047439575195,2.525007128715515,5.837172508239746,2.984365701675415,2.742360234260559,0.7859036922454834,,,,,,
12365076000.0,61.41,6.550000190734863,2996126208.0,12489.427295059715,101.0,0.09735107421875,3342336.0,864.3551589250565,0.006834251107648015,0.0797119140625,1.6599239110946655,-0.01388405729085207,1.3649899363517761,-0.01659923978149891,0.0027151815593242645,0.0,-0.01913148444145918,1.6452086567878723,0.6898087673154218,6.147756338119507,2.578615188598633,6.128625154495239,2.95483660697937,2.623659133911133,0.7701930999755859,,,,,,
12365076000.0,77.165,6.550000190734863,2996126208.0,12658.629868326936,102.0,0.09307861328125,3375104.0,866.9437487125397,0.0028600028017535806,0.02947998046875,1.7403984069824219,-0.016489608911797404,1.130752146244049,-0.017403983511030674,0.0009143734350800514,0.0,0.05540728569030762,1.4868478178977966,0.7287893356623588,5.783683776855469,2.4918428659439087,5.839091062545776,2.8548609018325806,2.5885897874832153,0.7668719291687012,,,,,,
12365076000.0,73.81,6.650000095367432,2996126208.0,12415.999260136128,103.0,0.08880615234375,3407872.0,869.5829241275787,0.003148385905660689,0.029998779296875,1.7587295770645142,-0.01697499118745327,1.129878580570221,-0.017587294802069664,0.0006123054772615433,0.0,0.07902206853032112,1.4947391152381897,0.7176921541480765,5.583442211151123,2.3545427322387695,5.662464141845703,2.8081696033477783,2.6391754150390625,0.7629393339157104,,,,,,
12365076000.0,69.76,6.5,2996126208.0,12650.992547584116,104.0,0.0836181640625,3440640.0,872.1730766296387,0.0033832910703495145,0.035186767578125,1.7764292359352112,-0.016617344692349434,1.0321837067604065,-0.017764292657375336,0.001146942377090454,0.0,0.023277457803487778,1.435062825679779,0.7313916237163955,5.636119842529297,2.3561562299728394,5.65939736366272,2.7731449604034424,2.5901525020599365,0.7656913995742798,,,,,,
12365076000.0,67.81,6.300000190734863,2996126208.0,11867.33041039553,105.0,0.091552734375,3473408.0,874.9342705011368,0.005600827280431986,0.0592041015625,1.7454848885536194,-0.016025244258344173,1.1590136885643005,-0.017454848624765873,0.0014296043664216995,0.0,-0.0046270135790109634,1.4940809607505798,0.7242678999684361,5.864532709121704,2.495851516723633,5.859905481338501,2.844572067260742,2.761193871498108,0.7788010835647583,,,,,,
12365076000.0,85.675,6.699999809265137,2996126208.0,11766.896676236334,106.0,0.0762939453125,3506176.0,877.7190319299698,0.005213516764342785,0.058685302734375,1.7906861901283264,-0.01631467416882515,1.0719621777534485,-0.017906861379742622,0.001592189073562622,0.0,-0.023783935233950615,1.4564729928970337,0.7151718450780462,5.556286573410034,2.370389938354492,5.5325024127960205,2.7254103422164917,2.784761428833008,0.772490382194519,,,,,,
12365076000.0,92.54,6.25,2996126208.0,11718.894416214585,107.0,0.06866455078125,3538944.0,880.515200138092,0.005916597554460168,0.070892333984375,1.8254734873771667,-0.018420024774968624,1.015965759754181,-0.018254734575748444,-0.00016529299318790436,0.0,-0.011884752660989761,1.4255390763282776,0.720596829303753,5.342825174331665,2.3281489610671997,5.33094048500061,2.6958439350128174,2.7961682081222534,0.7807953357696533,,,,,,
12365076000.0,95.835,6.349999904632568,2996126208.0,11619.2866997969,108.0,0.06744384765625,3571712.0,883.3353388309479,0.0028510031988844275,0.022308349609375,1.8894585967063904,-0.018259347416460514,0.8336224555969238,-0.01889458578079939,0.000635240226984024,0.0,0.016881130635738373,1.2800124883651733,0.7689305710122,5.135857105255127,2.3421424627304077,5.152738094329834,2.6588250398635864,2.820138692855835,0.7835781574249268,,,,,,
12365076000.0,110.945,6.650000095367432,2996126208.0,12039.957780743312,109.0,0.072021484375,3604480.0,886.0569430589676,0.0031684194691479206,0.03155517578125,1.8472251892089844,-0.01706315577030182,0.9876412153244019,-0.01847225148230791,0.001409098505973816,0.0,0.034115832298994064,1.3965619206428528,0.7358133679895943,5.1529541015625,2.3437668085098267,5.18707013130188,2.7136043310165405,2.7216042280197144,0.780779242515564,,,,,,
12365076000.0,83.855,6.900000095367432,2996126208.0,11771.372882985135,110.0,0.07080078125,3637248.0,888.8406455516815,0.004596826853230596,0.0443115234375,1.812469244003296,-0.017488284967839718,1.0753069519996643,-0.018124692142009735,0.000636405311524868,0.0,0.02899199165403843,1.4513074159622192,0.731955438611917,5.15837550163269,2.457157015800476,5.187367916107178,2.8035995960235596,2.7837024927139282,0.779921293258667,,,,,,
12365076000.0,78.63,6.650000095367432,2996126208.0,12144.739243124463,111.0,0.079345703125,3670016.0,891.538768529892,0.004097259370610118,0.04248046875,1.837278425693512,-0.017586071509867907,1.0830031633377075,-0.018372783437371254,0.0007867142558097839,0.0,0.018331149592995644,1.4551780819892883,0.7340427380853132,5.064629077911377,2.466403007507324,5.08296012878418,2.822595000267029,2.698122978210449,0.7850173711776733,,,,,,
12365076000.0,80.51,6.599999904632568,2996126208.0,11658.192781765094,112.0,0.08148193359375,3702784.0,894.3494957685471,0.004014489124529064,0.0439453125,1.8118764162063599,-0.016814221628010273,1.195938229560852,-0.018118763342499733,0.0013045414816588163,0.0,-0.005158524960279465,1.5452105402946472,0.7269342565881235,5.078756093978882,2.5821497440338135,5.073597431182861,2.950192928314209,2.8107272386550903,0.7812998294830322,,,,,,
12365076000.0,100.345,6.650000095367432,2996126208.0,11863.093260194912,113.0,0.08209228515625,3735552.0,897.1116758584976,0.004181595519185066,0.044464111328125,1.753851056098938,-0.016548928804695606,1.292184293270111,-0.017538510262966156,0.0009895814582705498,0.0,-0.03868118301033974,1.5960479974746704,0.7165112464916967,5.34051775932312,2.5993396043777466,5.3018364906311035,2.9961389303207397,2.7621800899505615,0.7960741519927979,,,,,,
12365076000.0,71.74,6.400000095367432,2996126208.0,11597.87794621738,114.0,0.08697509765625,3768320.0,899.9370203018188,0.0033835475333034992,0.031036376953125,1.6981436014175415,-0.01550759095698595,1.3698118925094604,-0.016981435008347034,0.0014738417230546474,0.0,-5.44586218893528e-05,1.6577571630477905,0.6897752572675562,5.338326692581177,2.6666752099990845,5.338272333145142,2.976867437362671,2.825344443321228,0.8084453344345093,,,,,,
12365076000.0,70.145,6.75,2996126208.0,12084.972448855835,115.0,0.09613037109375,3801088.0,902.6484869718552,0.003696505445986986,0.03790283203125,1.6953870058059692,-0.015891579911112785,1.4473882913589478,-0.01695387065410614,0.0010622888803482056,0.0,-0.014691995456814766,1.6945438385009766,0.688346025850938,5.580243110656738,2.59716260433197,5.565551042556763,3.0337826013565063,2.711466670036316,0.8041845560073853,,,,,,
12365076000.0,57.82,6.75,2996126208.0,11527.599137521367,116.0,0.0921630859375,3833856.0,905.4910563230515,0.002557610860094428,0.023895263671875,1.657782256603241,-0.016656975960358977,1.3190606236457825,-0.01657782308757305,-7.915496826171875e-05,0.0,-0.04905937518924475,1.6230435371398926,0.6992149365052232,5.531489610671997,2.53939425945282,5.4824299812316895,2.958903431892395,2.842569351196289,0.808830738067627,,,,,,
12365076000.0,61.21,7.0,2996126208.0,12030.540638091032,117.0,0.10345458984375,3866624.0,908.2147909402847,0.0031651679892092943,0.03558349609375,1.601126790046692,-0.014263143646530807,1.4575527906417847,-0.01601126790046692,0.0017481246031820774,0.0,0.10562525689601898,1.6951783299446106,0.6690062553026421,5.750317811965942,2.572897791862488,5.855942964553833,2.9448022842407227,2.7237346172332764,0.8081642389297485,,,,,,
12365076000.0,70.09,7.300000190734863,2996126208.0,11620.474433512021,118.0,0.10650634765625,3899392.0,911.0346413850784,0.005015410482883453,0.054595947265625,1.576992928981781,-0.014080814085900784,1.403484582901001,-0.015769928693771362,0.0016891155391931534,0.0,-0.013462232425808907,1.6667328476905823,0.6975091032730284,5.86906886100769,2.558353304862976,5.8556060791015625,3.019904613494873,2.819850444793701,0.8095098733901978,,,,,,
12365076000.0,61.205,6.449999809265137,2996126208.0,11597.809924075684,119.0,0.1092529296875,3932160.0,913.8600023984909,0.008887297473847866,0.100830078125,1.4342585802078247,-0.009364312281832099,1.6174020171165466,-0.014342584647238255,0.004978271201252937,0.0,-0.057519521564245224,1.7917004823684692,0.6503986229348808,5.972018241882324,2.435600161552429,5.914498805999756,3.0281474590301514,2.8253610134124756,0.8104113340377808,,,,,,
12365076000.0,61.475,6.599999904632568,2996126208.0,11586.328138760326,120.0,0.1123046875,3964928.0,916.6881632804871,0.005038131028413773,0.057037353515625,1.4914755821228027,-0.014137670397758484,1.4649286270141602,-0.014914756175130606,0.0007770843803882599,0.0,0.10478282533586025,1.691347062587738,0.6704970785075458,5.924388647079468,2.4605770111083984,6.029171705245972,2.947044610977173,2.828160881996155,0.8042584657669067,,,,,,
12365076000.0,56.16,6.400000095367432,2996126208.0,11788.588739764265,121.0,0.11627197265625,3997696.0,919.4678004980087,0.004857809981331229,0.05535888671875,1.47054922580719,-0.013843189924955368,1.5902411341667175,-0.014705490786582232,0.0008623022586107254,0.0,0.04923675023019314,1.76486074924469,0.666120162844379,5.884222030639648,2.518275260925293,5.933458566665649,3.0467402935028076,2.7796372175216675,0.7984586954116821,,,,,,
12365076000.0,53.78,6.5,2996126208.0,12148.989385990777,122.0,0.11260986328125,4030464.0,922.1649795770645,0.0026624149177223444,0.027374267578125,1.423618733882904,-0.013233539648354053,1.6727932691574097,-0.014236187096685171,0.001002647913992405,0.0,-0.10851812921464443,1.8309825658798218,0.6554251613168035,6.072502374649048,2.612426519393921,5.963984251022339,3.1190186738967896,2.697179079055786,0.8073911666870117,,,,,,
12365076000.0,56.17,6.599999904632568,2996126208.0,11614.482242089813,123.0,0.1171875,4063232.0,924.9862848520279,0.0019082651706412435,0.017059326171875,1.4611451625823975,-0.013854875694960356,1.5035051107406616,-0.014611451886594296,0.000756576657295227,0.0,0.11212717741727829,1.7197761535644531,0.6912952948033835,5.985152959823608,2.687871813774109,6.097280025482178,3.087428092956543,2.821305274963379,0.7997630834579468,,,,,,
12365076000.0,64.555,7.150000095367432,2996126208.0,11275.85900813539,124.0,0.1116943359375,4096000.0,927.8923162221909,0.00240997108630836,0.0233154296875,1.4484273195266724,-0.013908620923757553,1.5687119960784912,-0.01448427326977253,0.0005756528116762638,0.0,0.10462222620844841,1.761010229587555,0.656084293990643,5.900672435760498,2.614198327064514,6.005294561386108,2.9963512420654297,2.906031370162964,0.799182653427124,,,,,,
12365076000.0,57.22,6.550000190734863,2996126208.0,11834.039885809718,125.0,0.1153564453125,4128768.0,930.6612776517868,0.0020742207998409867,0.01885986328125,1.3315897583961487,-0.012462339596822858,1.706230640411377,-0.0133158965036273,0.0008535590022802353,0.0,0.044759152457118034,1.847731351852417,0.6226620597741077,6.231152296066284,2.615574836730957,6.275911569595337,3.0078967809677124,2.7689614295959473,0.8253892660140991,,,,,,
12365076000.0,60.425,6.699999809265137,2996126208.0,11854.893879023668,126.0,0.11962890625,4161536.0,933.4253681898117,0.004445163533091545,0.04425048828125,1.3153614401817322,-0.012294776737689972,1.8120081424713135,-0.01315361401066184,0.0008588358759880066,0.0,-0.04550989158451557,1.8777351379394531,0.6354618802946528,6.123748302459717,2.6277999877929688,6.078238487243652,3.109063982963562,2.7640905380249023,0.8237096071243286,,,,,,
12365104000.0,54.515,6.800000190734863,2996126208.0,12237.4172721777,127.0,0.1220703125,4194304.0,936.103057384491,0.0031855604611337185,0.03497314453125,1.4389065504074097,-0.013557634316384792,1.6256017684936523,-0.014389065094292164,0.0008314326405525208,0.0,-0.013390935957431793,1.80296790599823,0.6556113653806176,6.0277769565582275,2.5764923095703125,6.014386177062988,3.07345187664032,2.6776891946792603,0.7943518161773682,,,,,,
,,,,,,,,,,,,,,,,,,,,,,,,,,0.020245338790118694,1.2517952919006348,1.2738134860992432,0.020245338790118694,1.2517952919006348,1.2738134860992432
,,,,,,,,,,,,,,,,,,,,,,,,,,0.016688868403434753,1.1799768805503845,1.1811347007751465,0.016688868403434753,1.1799768805503845,1.1811347007751465
,,,,,,,,,,,,,,,,,,,,,,,,,,0.016030519269406796,1.1429355144500732,1.1433466076850891,0.016030519269406796,1.1429355144500732,1.1433466076850891
,,,,,,,,,,,,,,,,,,,,,,,,,,0.016004876233637333,1.1172680258750916,1.1176970601081848,0.016004876233637333,1.1172680258750916,1.1176970601081848
,,,,,,,,,,,,,,,,,,,,,,,,,,0.016013525426387787,1.097278892993927,1.0975823402404785,0.016013525426387787,1.097278892993927,1.0975823402404785
,,,,,,,,,,,,,,,,,,,,,,,,,,0.016217784024775028,1.0737686157226562,1.0740637183189392,0.016217784024775028,1.0737686157226562,1.0740637183189392
12365130000.0,58.5,6.699999809265137,2793537536.0,169.81148167849875,128.0,0.11749267578125,4227072.0,1129.069985628128,0.0029445362742990255,0.028106689453125,1.3517832159996033,-0.012561332434415817,1.3270047903060913,-0.013517833780497313,0.0009565073996782303,0.0,0.09579570684581995,1.6230841279029846,0.7153446007011764,5.9054930210113525,2.4998836517333984,6.001288890838623,3.0430500507354736,192.96692824363708,0.7789064645767212,,,,,,
12365130000.0,57.315,6.400000095367432,2996126208.0,12436.846236210473,129.0,0.1214599609375,4259840.0,1131.7047371864319,0.002885133260861039,0.029510498046875,1.405074119567871,-0.013414168730378151,1.3745010495185852,-0.014050742145627737,0.0006365729495882988,0.0,0.09220530092716217,1.6517791748046875,0.6965926663291141,6.116741418838501,2.4874441623687744,6.208946704864502,2.9937312602996826,2.634751558303833,0.768487811088562,,,,,,
12365130000.0,55.875,6.849999904632568,2996126208.0,12111.525178773938,130.0,0.1177978515625,4292608.0,1134.4102593660355,0.0031245375284925103,0.030029296875,1.4213792085647583,-0.013615682721138,1.4236890077590942,-0.014213792514055967,0.0005981065332889557,0.0,-0.0026332102715969086,1.6710340976715088,0.7038928009667174,6.123172044754028,2.5851852893829346,6.120538949966431,3.072397232055664,2.7055221796035767,0.7849397659301758,,,,,,
12365130000.0,58.37,6.75,2996126208.0,12020.8064997533,131.0,0.11566162109375,4325376.0,1137.136199593544,0.003138937405310571,0.029083251953125,1.4532415866851807,-0.013786411378532648,1.3693824410438538,-0.01453241566196084,0.0007460056804120541,0.0,-0.027212008833885193,1.6419931054115295,0.721483553393027,6.043607950210571,2.653198480606079,6.0163960456848145,3.1112953424453735,2.725940227508545,0.7755423784255981,,,,,,
12365130000.0,53.965,7.099999904632568,2996126208.0,11784.578889186429,132.0,0.1214599609375,4358144.0,1139.916782617569,0.0037454692646861076,0.041351318359375,1.4854724407196045,-0.014376161387190223,1.3004964590072632,-0.014854724053293467,0.00047856196761131287,0.0,0.049019829370081425,1.6097356677055359,0.7344370866667985,6.1021177768707275,2.6460758447647095,6.151137351989746,3.1145384311676025,2.7805830240249634,0.7773884534835815,,,,,,
12365130000.0,68.485,7.050000190734863,2996126208.0,11785.24077481771,133.0,0.11688232421875,4390912.0,1142.6972094774246,0.0029950254829600453,0.0303955078125,1.4870940446853638,-0.014047524891793728,1.2472039461135864,-0.014870940241962671,0.0008234141860157251,0.0,0.0682092048227787,1.5754422545433044,0.7259251950183827,5.99458384513855,2.5748201608657837,6.062793016433716,3.0096148252487183,2.780426859855652,0.7848310470581055,,,,,,
12365130000.0,57.545,6.5,2996126208.0,12262.070699368933,134.0,0.1129150390625,4423680.0,1145.3695150613785,0.004491406725719571,0.0521240234375,1.5427209734916687,-0.013892277842387557,1.2748623490333557,-0.015427208505570889,0.0015349313616752625,0.0,-0.007246698252856731,1.5981693267822266,0.7236599694759869,6.013450622558594,2.5901005268096924,6.00620436668396,3.0365670919418335,2.6723055839538574,0.7720603942871094,,,,,,
12365130000.0,59.005,6.949999809265137,2996126208.0,12292.235774127803,135.0,0.111083984375,4456448.0,1148.0352628231049,0.00479089398868382,0.057098388671875,1.5759095549583435,-0.014616148546338081,1.2440845966339111,-0.01575909461826086,0.0011429432779550552,0.0,-0.031212342903017998,1.558671772480011,0.7311553674613769,5.949891805648804,2.590308427810669,5.918679714202881,3.0071592330932617,2.6657477617263794,0.7667537927627563,,,,,,
12365130000.0,60.06,7.25,2996126208.0,11924.501425737997,136.0,0.10772705078125,4489216.0,1150.783218383789,0.0044124668929725885,0.05047607421875,1.576950490474701,-0.013540159910917282,1.2428674101829529,-0.015769504941999912,0.002229343168437481,0.0,0.05526986811310053,1.567338466644287,0.715856704965047,5.885951280593872,2.5749125480651855,5.941221237182617,2.9424948692321777,2.747955560684204,0.7823854684829712,,,,,,
12365130000.0,62.705,6.599999904632568,2996126208.0,11678.997246755098,137.0,0.101318359375,4521984.0,1153.5889387130737,0.004403061931952834,0.05169677734375,1.5353659987449646,-0.013544745743274689,1.2924951314926147,-0.015353659633547068,0.0018089115619659424,0.0,-0.04514080286026001,1.6057476997375488,0.7180014782411128,5.958028316497803,2.5828301906585693,5.9128875732421875,3.016295075416565,2.805720329284668,0.7874934673309326,,,,,,
12365130000.0,61.84,7.25,2996126208.0,11790.160268900214,138.0,0.12115478515625,4554752.0,1156.3682054281235,0.002532081911340356,0.024810791015625,1.5013266801834106,-0.013745069969445467,1.3672797083854675,-0.015013266820460558,0.0012681989464908838,0.0,0.09618085622787476,1.6338459253311157,0.7020179866653484,6.063604831695557,2.5473188161849976,6.159785747528076,2.9926964044570923,2.7792667150497437,0.7852113246917725,,,,,,
12365130000.0,62.47,6.599999904632568,2996126208.0,12168.189087740653,139.0,0.107421875,4587520.0,1159.0611287355423,0.002981737838126719,0.0341796875,1.5227915048599243,-0.014143284410238266,1.2760952711105347,-0.015227914787828922,0.0010846331715583801,0.0,0.017438768409192562,1.5866617560386658,0.7243154978646245,5.85254693031311,2.533739447593689,5.869985342025757,3.0228445529937744,2.6929233074188232,0.765153169631958,,,,,,
12365130000.0,72.21,6.5,2996126208.0,12359.519197469383,140.0,0.106201171875,4620288.0,1161.7123645544052,0.005239519057795405,0.06402587890625,1.4960172772407532,-0.01373443054035306,1.3195216059684753,-0.01496017212048173,0.0012257421622052789,0.0,0.028305011801421642,1.617667019367218,0.7009099540402475,5.953857898712158,2.5008463859558105,5.982163190841675,2.957312226295471,2.651235818862915,0.7653937339782715,,,,,,
12365130000.0,60.495,6.900000095367432,2996126208.0,11979.231726734371,141.0,0.11016845703125,4653056.0,1164.4477653503418,0.0032316327560693026,0.036041259765625,1.5411480069160461,-0.014419757761061192,1.3528276681900024,-0.015411479864269495,0.000991719774901867,0.0,0.010031449608504772,1.6283069252967834,0.7051710587967488,5.9980175495147705,2.5162241458892822,6.00804877281189,2.998886227607727,2.7354007959365845,0.783034086227417,,,,,,
12365130000.0,64.045,7.550000190734863,2996126208.0,11962.236286098074,142.0,0.108642578125,4685824.0,1167.187052488327,0.002691588015295565,0.027587890625,1.637968361377716,-0.015183395706117153,1.243373453617096,-0.01637968234717846,0.0011962894350290298,0.0,0.09738527983427048,1.558308482170105,0.7152862017282131,5.836293458938599,2.4590753316879272,5.933678150177002,2.9166953563690186,2.7392871379852295,0.7667922973632812,,,,,,
12365130000.0,61.06,6.400000095367432,2996126208.0,12195.18924285682,143.0,0.10345458984375,4718592.0,1169.8740136623383,0.0033909697085618973,0.03448486328125,1.574062466621399,-0.014783862046897411,1.343128263950348,-0.01574062369763851,0.0009567616507411003,0.0,-0.015713056549429893,1.6332045197486877,0.7065640684315777,5.950725317001343,2.5268386602401733,5.935012578964233,3.016131639480591,2.6869611740112305,0.7858872413635254,,,,,,
12365130000.0,58.025,6.75,2996126208.0,12199.184579779609,144.0,0.1123046875,4751360.0,1172.560094833374,0.0036880041006952524,0.039031982421875,1.6457474827766418,-0.015294441021978855,1.3554303050041199,-0.01645747385919094,0.0011630328372120857,0.0,0.07422268763184547,1.5989952087402344,0.7098733132112613,5.983989477157593,2.5445374250411987,6.058212041854858,2.9676703214645386,2.6860811710357666,0.7647547721862793,,,,,,
12365130000.0,61.78,6.800000190734863,2996126208.0,12174.625666615375,145.0,0.11444091796875,4784128.0,1175.2515944242477,0.0035275639966130257,0.037200927734375,1.6439864039421082,-0.01566124428063631,1.348493754863739,-0.016439863480627537,0.000778617337346077,0.0,0.047081369906663895,1.6455534100532532,0.6983635881895243,6.087639808654785,2.5439136028289795,6.134721279144287,2.9967849254608154,2.6914995908737183,0.801169753074646,,,,,,
12365130000.0,55.76,7.150000095367432,2996126208.0,11899.298259479423,146.0,0.1239013671875,4816896.0,1178.005370259285,0.0025356390979140997,0.023162841796875,1.5575369000434875,-0.014616517815738916,1.3776877522468567,-0.01557536842301488,0.0009588506072759628,0.0,-0.027287700213491917,1.6403905749320984,0.6948930379843494,6.500988006591797,2.4970391988754272,6.473700284957886,2.9671287536621094,2.7537758350372314,0.808624267578125,,,,,,
12365130000.0,55.705,7.5,2996126208.0,11536.483777542257,147.0,0.1220703125,4849664.0,1180.845750451088,0.0037538681644946337,0.039642333984375,1.5232128500938416,-0.013676984701305628,1.408933401107788,-0.01523212855681777,0.0015551447868347168,0.0,0.020936169661581516,1.676470398902893,0.6695998708762118,6.5529680252075195,2.474117875099182,6.573904514312744,2.914010167121887,2.8403801918029785,0.801721453666687,,,,,,
12365130000.0,61.98,7.050000190734863,2996126208.0,11540.036816251373,148.0,0.11444091796875,4882432.0,1183.6852561235428,0.0030301364604383707,0.026397705078125,1.5499224662780762,-0.014587732031941414,1.3532513976097107,-0.015499224420636892,0.0009114928543567657,0.0,0.03406401537358761,1.6446831822395325,0.6778364805832974,6.218441486358643,2.440161108970642,6.252505779266357,2.8875162601470947,2.839505672454834,0.808562159538269,,,,,,
12365130000.0,59.64,7.050000190734863,2996126208.0,11071.97393495222,149.0,0.1092529296875,4915200.0,1186.6448006629944,0.0023746767546981573,0.021728515625,1.6315576434135437,-0.015821918845176697,1.2932243943214417,-0.016315575689077377,0.0004936568439006805,0.0,-0.0017014741897583008,1.60457843542099,0.692594499126606,6.164485692977905,2.443200469017029,6.1627843379974365,2.895685315132141,2.959544539451599,0.8100749254226685,,,,,,
12365130000.0,68.01,6.650000095367432,2996126208.0,11321.287553556132,150.0,0.098876953125,4947968.0,1189.5391710996628,0.0018678936176002026,0.016204833984375,1.6756977438926697,-0.016287656500935555,1.2064098715782166,-0.016756976954638958,0.00046931812539696693,0.0,-0.01924007013440132,1.5536569356918335,0.7050428377959426,5.932124614715576,2.4110149145126343,5.912884712219238,2.859637975692749,2.894370436668396,0.8061332702636719,,,,,,
12365130000.0,66.875,7.199999809265137,2996126208.0,11710.261976779717,151.0,0.10162353515625,4980736.0,1192.3374005556107,0.0033595183631405234,0.035186767578125,1.6614938378334045,-0.016233130358159542,1.2574337720870972,-0.016614938154816628,0.00038180872797966003,0.0,0.01801394298672676,1.5805110335350037,0.6929898727809873,5.996429681777954,2.4059978723526,6.014443397521973,2.853080987930298,2.798229455947876,0.8109105825424194,,,,,,
12365130000.0,61.695,6.849999904632568,2996126208.0,11547.35708302266,152.0,0.10589599609375,5013504.0,1195.1751061677933,0.0032129681203514338,0.031585693359375,1.6065781116485596,-0.015356299700215459,1.289872169494629,-0.016065781004726887,0.0007094806060194969,0.0,-0.008712869137525558,1.5979936718940735,0.7024592294691321,5.974313259124756,2.4846673011779785,5.965600252151489,2.930154323577881,2.837705612182617,0.8096776008605957,,,,,,
12365130000.0,64.325,7.099999904632568,2996126208.0,11783.623577379223,153.0,0.113525390625,5046272.0,1197.9559146165848,0.0028976245084777474,0.03125,1.6388767957687378,-0.015015773475170135,1.2658528089523315,-0.016388768330216408,0.0013729967176914215,0.0,0.003450196236371994,1.580924153327942,0.7152831792244707,6.100409746170044,2.5794657468795776,6.103859901428223,2.957621455192566,2.780808448791504,0.8104417324066162,,,,,,
12365130000.0,62.87,7.550000190734863,2996126208.0,11352.549014759017,154.0,0.10955810546875,5079040.0,1200.842314839363,0.003111079684458673,0.032806396484375,1.5861831307411194,-0.015371747314929962,1.3469144701957703,-0.015861831605434418,0.0004900842905044556,0.0,0.003043483942747116,1.638992190361023,0.6997195393656541,6.064232587814331,2.5619508028030396,6.0672760009765625,2.98456346988678,2.8864002227783203,0.8094033002853394,,,,,,
12365130000.0,60.88,6.400000095367432,2996126208.0,11550.993032309074,155.0,0.10528564453125,5111808.0,1203.679127216339,0.003618943621404469,0.040313720703125,1.5905555486679077,-0.014923293143510818,1.2953461408615112,-0.01590555440634489,0.0009822584688663483,0.0,-0.0038805101066827774,1.600329339504242,0.7086190622573088,5.831127166748047,2.535314202308655,5.827246904373169,2.958133578300476,2.836812376976013,0.798669695854187,,,,,,
12365130000.0,55.44,6.949999809265137,2996126208.0,11888.35804574946,156.0,0.1123046875,5144576.0,1206.4354372024536,0.0031013147672638297,0.032196044921875,1.6038498878479004,-0.014949343632906675,1.401761770248413,-0.016038497909903526,0.0010891547426581383,0.0,-0.019723395816981792,1.6702431440353394,0.6906155202129522,6.019650936126709,2.5907979011535645,5.999927997589111,3.0017184019088745,2.756309986114502,0.8085036277770996,,,,,,
12365130000.0,62.135,6.900000095367432,2996126208.0,12252.609424826122,157.0,0.103759765625,5177344.0,1209.1098062992096,0.004817125853151083,0.052337646484375,1.6426990032196045,-0.014043525326997042,1.2173489332199097,-0.016426989808678627,0.0023834658786654472,0.0,0.04487059637904167,1.5621426701545715,0.7183970373254744,5.778789043426514,2.576637029647827,5.823659658432007,2.942290782928467,2.6743690967559814,0.7998090982437134,,,,,,
12365130000.0,74.68,7.099999904632568,2996126208.0,11700.604708066683,158.0,0.09124755859375,5210112.0,1211.9103453159332,0.00379473390057683,0.041046142578125,1.7408403754234314,-0.01753162033855915,1.1946990489959717,-0.0174084035679698,-0.0001232139766216278,0.0,0.06580577231943607,1.5209013223648071,0.720549924863598,5.417557716369629,2.474391460418701,5.483363151550293,2.8727680444717407,2.800539016723633,0.8142474889755249,,,,,,
12365158000.0,75.99,6.25,2996126208.0,11814.92865715115,159.0,0.08056640625,5242880.0,1214.6837856769562,0.003048595041036606,0.030792236328125,1.7921172976493835,-0.015514090657234192,1.0597588419914246,-0.017921173945069313,0.0024070823565125465,0.0,0.003312139306217432,1.448536217212677,0.7333057634501342,5.242794990539551,2.386433720588684,5.246106863021851,2.796351194381714,2.773440361022949,0.8160610198974609,,,,,,
,,,,,,,,,,,,,,,,,,,,,,,,,,0.020744888111948967,1.216332495212555,1.2539594769477844,0.020744888111948967,1.216332495212555,1.2539594769477844
,,,,,,,,,,,,,,,,,,,,,,,,,,0.017842314206063747,1.154387354850769,1.1549450755119324,0.017842314206063747,1.154387354850769,1.1549450755119324
,,,,,,,,,,,,,,,,,,,,,,,,,,0.017492721788585186,1.1218655705451965,1.122193157672882,0.017492721788585186,1.1218655705451965,1.122193157672882
,,,,,,,,,,,,,,,,,,,,,,,,,,0.017791478894650936,1.1015786528587341,1.1018807291984558,0.017791478894650936,1.1015786528587341,1.1018807291984558
,,,,,,,,,,,,,,,,,,,,,,,,,,0.017943927086889744,1.0850557088851929,1.0852383375167847,0.017943927086889744,1.0850557088851929,1.0852383375167847
,,,,,,,,,,,,,,,,,,,,,,,,,,0.01816818956285715,1.0714948177337646,1.071721374988556,0.01816818956285715,1.0714948177337646,1.071721374988556
12365328000.0,71.055,6.75,2793537536.0,170.56801673479868,160.0,0.08758544921875,5275648.0,1406.7948310375214,0.004348634276539087,0.045196533203125,1.7298310995101929,-0.01620738161727786,1.0304168462753296,-0.017298311926424503,0.0010909289121627808,0.0,0.04339735023677349,1.4333487153053284,0.7576417104525929,5.368487358093262,2.4843002557754517,5.411884784698486,2.9114595651626587,192.11104536056519,0.7862118482589722,,,,,,
12365328000.0,75.39,7.199999809265137,2996126208.0,11951.866543632272,161.0,0.0848388671875,5308416.0,1409.5364948511124,0.003140072338283062,0.029449462890625,1.8662667274475098,-0.017667836043983698,0.9255243241786957,-0.018662667833268642,0.0009948303923010826,0.0,0.04468085058033466,1.3580018281936646,0.7643915132037169,5.274202346801758,2.4359281063079834,5.318883419036865,2.7977977991104126,2.7416638135910034,0.7877544164657593,,,,,,
12365328000.0,82.165,6.900000095367432,2996126208.0,11638.516772238054,162.0,0.07080078125,5341184.0,1412.3519738912582,0.004608391784131527,0.054412841796875,1.854189395904541,-0.017746190540492535,0.8275398910045624,-0.018541893921792507,0.0007957052439451218,0.0,0.023118173703551292,1.2800409197807312,0.7874733525078171,5.107037544250488,2.4230129718780518,5.130155563354492,2.771775484085083,2.815479040145874,0.7942122220993042,,,,,,
12365328000.0,86.385,7.199999809265137,2996126208.0,11949.825620512638,163.0,0.07415771484375,5373952.0,1415.0941059589386,0.00426414143294096,0.045074462890625,1.9254064559936523,-0.018663040827959776,0.8212775588035583,-0.019254064187407494,0.0005910228937864304,0.0,0.05553954467177391,1.277834415435791,0.7913149462309506,5.17176365852356,2.456895112991333,5.2273032665252686,2.7946696281433105,2.742132067680359,0.7731616497039795,,,,,,
12365328000.0,94.445,7.199999809265137,2996126208.0,11902.90308444585,164.0,0.072021484375,5406720.0,1417.8470478057861,0.0031827520579099655,0.029541015625,1.9144007563591003,-0.01850154623389244,0.8422125577926636,-0.019144007936120033,0.0006424617022275925,0.0,0.025059010833501816,1.2897642850875854,0.7919093243307711,5.175760269165039,2.4905725717544556,5.20081901550293,2.8256444931030273,2.752941846847534,0.7795865535736084,,,,,,
12365328000.0,98.715,6.949999809265137,2996126208.0,10799.540491257267,165.0,0.07080078125,5439488.0,1420.8812509775162,0.002630745293572545,0.024566650390625,1.9200262427330017,-0.01740668062120676,0.8297092020511627,-0.019200260750949383,0.0017935815267264843,0.0,-0.045626286417245865,1.2875681519508362,0.7861608512183258,5.169086933135986,2.4780969619750977,5.123460531234741,2.7843493223190308,3.0342031717300415,0.7881348133087158,,,,,,
12365328000.0,86.205,7.050000190734863,2996126208.0,12432.87425174675,166.0,0.07232666015625,5472256.0,1423.5168442726135,0.002303133951500058,0.020599365234375,1.8826136589050293,-0.018302984070032835,0.8532420694828033,-0.018826136365532875,0.0005231522955000401,0.0,-0.0018861377611756325,1.3031030893325806,0.784624968777262,5.216055393218994,2.500791907310486,5.214169263839722,2.807171583175659,2.635593295097351,0.7708929777145386,,,,,,
12365328000.0,99.895,7.199999809265137,2996126208.0,11504.374925272732,167.0,0.06866455078125,5505024.0,1426.365152001381,0.003177495440468192,0.033782958984375,1.943605363368988,-0.018862396478652954,0.8416176736354828,-0.019436053931713104,0.0005736555904150009,0.0,-0.02104836143553257,1.284218966960907,0.7910246813210453,5.100157022476196,2.5116491317749023,5.079108476638794,2.812956929206848,2.848307728767395,0.7846962213516235,,,,,,
12365328000.0,90.93,7.300000190734863,2996126208.0,11489.769718427553,168.0,0.0726318359375,5537792.0,1429.2170803546906,0.006516677560284734,0.072906494140625,1.845594048500061,-0.0164492791518569,0.8425803780555725,-0.018455940298736095,0.002006661146879196,0.0,0.06906651705503464,1.2933214902877808,0.782536896355907,5.212147235870361,2.4331847429275513,5.2812135219573975,2.771193504333496,2.8519283533096313,0.7794194221496582,,,,,,
12365328000.0,92.45,6.849999904632568,2996126208.0,11448.156466443841,169.0,0.07110595703125,5570560.0,1432.0793752670288,0.005404896568506956,0.063140869140625,1.8622635006904602,-0.01696100551635027,0.7943640649318695,-0.01862263400107622,0.001661626622080803,0.0,-0.009243373293429613,1.2568404078483582,0.7932932705484189,5.270955562591553,2.4702283143997192,5.261712312698364,2.76295804977417,2.862294912338257,0.7804583311080933,,,,,,
12365328000.0,101.575,7.25,2996126208.0,11044.518855946024,170.0,0.07568359375,5603328.0,1435.046276807785,0.0024297633208334446,0.020355224609375,1.877776563167572,-0.01880292361602187,0.8340170979499817,-0.01877776626497507,-2.5155022740364075e-05,0.0,-0.005168701056391001,1.2841747999191284,0.7966622657870215,5.411920070648193,2.544665575027466,5.40675163269043,2.848181962966919,2.9669015407562256,0.7824935913085938,,,,,,
12365328000.0,90.53,7.400000095367432,2996126208.0,11195.971565506221,171.0,0.0750732421875,5636096.0,1437.9730437994003,0.0037152611184865236,0.04119873046875,1.8551397323608398,-0.017613104544579983,0.8090095818042755,-0.018551397137343884,0.0009382925927639008,0.0,-0.01881778985261917,1.2707872986793518,0.7866294100673065,5.311197280883789,2.43661367893219,5.292379140853882,2.733020305633545,2.9267669916152954,0.7880750894546509,,,,,,
12365328000.0,95.195,7.349999904632568,2996126208.0,10751.670085777456,172.0,0.07568359375,5668864.0,1441.0207563638687,0.004728625062853098,0.048248291015625,1.8772388696670532,-0.017449501901865005,0.8086767792701721,-0.018772387877106667,0.0013228878378868103,0.0,0.0032633915543556213,1.2636651396751404,0.7944722036118843,5.295655012130737,2.4673187732696533,5.2989182472229,2.7702651023864746,3.047712564468384,0.7897058725357056,,,,,,
12365328000.0,113.36,6.699999809265137,2996126208.0,9804.178763625412,173.0,0.072021484375,5701632.0,1444.3630046844482,0.00344842835329473,0.035064697265625,1.9148826599121094,-0.01845920318737626,0.8326599597930908,-0.019148826599121094,0.0006896238774061203,0.0,-0.05890176445245743,1.2869498133659363,0.7809293693401469,5.115771293640137,2.4013290405273438,5.0568695068359375,2.7377020120620728,3.342248320579529,0.7865052223205566,,,,,,
12365328000.0,104.3,6.5,2996126208.0,11274.26435759402,174.0,0.06072998046875,5734400.0,1447.2694470882416,0.0033060151617974043,0.032073974609375,1.9121714234352112,-0.018121663480997086,0.8429737687110901,-0.019121714867651463,0.001000046730041504,0.0,-0.03723674546927214,1.2889131307601929,0.7577747130075658,5.000443696975708,2.3227559328079224,4.963207006454468,2.603843927383423,2.906442403793335,0.779767632484436,,,,,,
12365328000.0,99.075,6.75,2996126208.0,11474.32254376604,175.0,0.07049560546875,5767168.0,1450.1252148151398,0.002956231706775725,0.031280517578125,1.9657738208770752,-0.01854764111340046,0.7648604214191437,-0.01965773943811655,0.0011101006530225277,0.0,-0.007549542002379894,1.2327273488044739,0.7989085048410693,5.047685146331787,2.4392919540405273,5.040135622024536,2.7423641681671143,2.8557677268981934,0.7870339155197144,,,,,,
12365328000.0,101.11,6.75,2996126208.0,11730.641085628193,176.0,0.0634765625,5799936.0,1452.918583035469,0.003913629683665931,0.0418701171875,1.9878907203674316,-0.018246589228510857,0.7580912709236145,-0.01987890712916851,0.0016323172021657228,0.0,-0.032980650663375854,1.2273222208023071,0.7875987920681883,4.846524715423584,2.3404884338378906,4.813544034957886,2.662401556968689,2.7933682203292847,0.7754305601119995,,,,,,
12365328000.0,124.125,7.099999904632568,2996126208.0,12146.152765948802,177.0,0.0628662109375,5832704.0,1455.6163920164108,0.005553416907787323,0.059661865234375,2.0238746404647827,-0.019125381484627724,0.6742597222328186,-0.02023874782025814,0.0011133626103401184,0.0,0.002056078054010868,1.1471012830734253,0.8009177753683344,4.812219619750977,2.2820756435394287,4.814275741577148,2.5758514404296875,2.6978089809417725,0.7818055152893066,,,,,,
12365328000.0,99.98,7.150000095367432,2996126208.0,11255.44020540969,178.0,0.06805419921875,5865472.0,1458.5276952981949,0.003928577993065119,0.04034423828125,1.9301223158836365,-0.018153542070649564,0.8067054152488708,-0.019301222637295723,0.0011476785875856876,0.0,-0.009043112397193909,1.2648070454597473,0.7713839690062675,4.996669292449951,2.323379397392273,4.987626075744629,2.644325017929077,2.9113032817840576,0.8002136945724487,,,,,,
12365328000.0,109.34,7.300000190734863,2996126208.0,10879.671216695464,179.0,0.07171630859375,5898240.0,1461.5395510196686,0.003376382403075695,0.038482666015625,1.8384737372398376,-0.01759592816233635,0.8970168828964233,-0.018384736962616444,0.0007888078689575195,0.0,0.015278156846761703,1.3296995759010315,0.7552150773709001,5.194261074066162,2.3661015033721924,5.20953893661499,2.6833481788635254,3.011855721473694,0.8032656908035278,,,,,,
12365328000.0,70.88,7.099999904632568,2996126208.0,10039.309739428152,180.0,0.08758544921875,5931008.0,1464.8035204410553,0.004771617474034429,0.055755615234375,1.8302844166755676,-0.016331165097653866,0.9333954453468323,-0.018302843905985355,0.001971680670976639,0.0,-0.006578563712537289,1.3392019271850586,0.7771440449124281,5.307985067367554,2.468127965927124,5.301406383514404,2.829641342163086,3.2639694213867188,0.8099701404571533,,,,,,
12365328000.0,69.415,7.150000095367432,2996126208.0,11005.313361700548,181.0,0.0762939453125,5963776.0,1467.7809913158417,0.004281348781660199,0.04937744140625,1.8532658219337463,-0.01761063188314438,0.8271463513374329,-0.01853265706449747,0.0009220261126756668,0.0,0.007084149867296219,1.2764652371406555,0.7925797945741969,5.1428446769714355,2.4503560066223145,5.14992880821228,2.7963393926620483,2.977470874786377,0.8112200498580933,,,,,,
12365328000.0,92.42,7.099999904632568,2996126208.0,10770.22535614344,182.0,0.081787109375,5996544.0,1470.8234531879425,0.0029711404349654913,0.029266357421875,1.8873405456542969,-0.01764652505517006,0.8928331136703491,-0.018873403780162334,0.0012268796563148499,0.0,0.0925481989979744,1.3143247365951538,0.7906583272005554,5.059070587158203,2.498497724533081,5.15161919593811,2.876381754875183,3.04246187210083,0.8186764717102051,,,,,,
12365328000.0,95.115,7.050000190734863,2996126208.0,10801.054170648167,183.0,0.07965087890625,6029312.0,1473.8572311401367,0.002704123151488602,0.028289794921875,1.8519457578659058,-0.018127531744539738,0.9457734525203705,-0.01851945649832487,0.0003919275477528572,0.0,0.024033047258853912,1.3730884194374084,0.7634998512036426,5.159862041473389,2.465972661972046,5.183895111083984,2.822041392326355,3.033777952194214,0.8128954172134399,,,,,,
12365328000.0,84.955,7.199999809265137,2996126208.0,11531.066891834413,184.0,0.0848388671875,6062080.0,1476.6989456415176,0.002957935561425984,0.031524658203125,1.8428844213485718,-0.01777392067015171,0.9988269805908203,-0.018428844399750233,0.0006549227982759476,0.0,-0.03586488030850887,1.406716525554657,0.764208908418681,5.340471506118774,2.5336941480636597,5.3046064376831055,2.896446466445923,2.8417145013809204,0.805478572845459,,,,,,
12365328000.0,76.725,6.949999809265137,2996126208.0,10951.737323898593,185.0,0.08148193359375,6094848.0,1479.6909823417664,0.004275262355804443,0.0440673828125,1.8156556487083435,-0.016370167955756187,0.9429951012134552,-0.018156555481255054,0.0017863884568214417,0.0,0.005281524732708931,1.3676376938819885,0.7590921003872813,5.382206201553345,2.449204444885254,5.387487888336182,2.7817481756210327,2.9920367002487183,0.7868317365646362,,,,,,
12365328000.0,84.605,6.800000190734863,2996126208.0,11267.384055517741,186.0,0.07568359375,6127616.0,1482.5991995334625,0.005178822902962565,0.05859375,1.739453375339508,-0.015980259981006384,1.0075058341026306,-0.017394534312188625,0.0014142747968435287,0.0,-0.04730845056474209,1.40804785490036,0.7372221199854114,5.376278400421143,2.447094202041626,5.328969717025757,2.745528221130371,2.908217191696167,0.8030067682266235,,,,,,
12365328000.0,77.675,7.349999904632568,2996126208.0,11057.382619335269,187.0,0.084228515625,6160384.0,1485.562649488449,0.0029495027847588062,0.028594970703125,1.8348808884620667,-0.01742217317223549,0.9711359143257141,-0.018348808400332928,0.000926637090742588,0.0,0.029298274777829647,1.3826545476913452,0.7638835671955703,5.155485153198242,2.479530930519104,5.184783697128296,2.8454631567001343,2.9634499549865723,0.8121236562728882,,,,,,
12365328000.0,110.29,7.349999904632568,2996126208.0,11428.950559238889,188.0,0.072021484375,6193152.0,1488.4297543764114,0.00244867498986423,0.02197265625,1.902664303779602,-0.01794120017439127,0.8102136254310608,-0.01902664266526699,0.0010854448191821575,0.0,0.05107061192393303,1.2740949988365173,0.7754787901374343,4.755898952484131,2.320905089378357,4.80696964263916,2.6892305612564087,2.8671048879623413,0.8154122829437256,,,,,,
12365328000.0,96.21,7.150000095367432,2996126208.0,11485.038143912396,189.0,0.0726318359375,6225920.0,1491.2828576564789,0.003575345384888351,0.03936767578125,1.9128184914588928,-0.01704329764470458,0.9101229906082153,-0.019128184765577316,0.0020848875865340233,0.0,0.0464195366948843,1.346897840499878,0.7634292836013314,4.871449947357178,2.4241650104522705,4.917869806289673,2.7694101333618164,2.853103280067444,0.8126281499862671,,,,,,
12365328000.0,103.87,6.900000095367432,2996126208.0,11385.257164006201,190.0,0.068359375,6258688.0,1494.160965681076,0.0037987215910106897,0.040374755859375,1.9248774647712708,-0.01730673562269658,0.8734627068042755,-0.019248775206506252,0.0019420390017330647,0.0,0.07652639597654343,1.3218433260917664,0.7666516815944007,4.8875861167907715,2.396545171737671,4.964112281799316,2.7330316305160522,2.878108024597168,0.8060485124588013,,,,,,
12365402000.0,113.155,6.900000095367432,2996126208.0,11787.232444453817,191.0,0.078125,6291456.0,1496.9409227371216,0.003846706822514534,0.042633056640625,1.9285377860069275,-0.018299801275134087,0.9070647656917572,-0.01928537804633379,0.0009855777025222778,0.0,0.018725959584116936,1.344444751739502,0.7823285261603627,5.018095016479492,2.560340404510498,5.036820650100708,2.882955312728882,2.7799570560455322,0.8122737407684326,,,,,,
,,,,,,,,,,,,,,,,,,,,,,,,,,0.018150033429265022,0.8278201222419739,0.8430415689945221,0.018150033429265022,0.8278201222419739,0.8430415689945221
,,,,,,,,,,,,,,,,,,,,,,,,,,0.016370481811463833,0.7841544449329376,0.7844430506229401,0.016370481811463833,0.7841544449329376,0.7844430506229401
,,,,,,,,,,,,,,,,,,,,,,,,,,0.016156498342752457,0.7679944336414337,0.7681719064712524,0.016156498342752457,0.7679944336414337,0.7681719064712524
,,,,,,,,,,,,,,,,,,,,,,,,,,0.016591754741966724,0.7549673020839691,0.7551088333129883,0.016591754741966724,0.7549673020839691,0.7551088333129883
,,,,,,,,,,,,,,,,,,,,,,,,,,0.01680883578956127,0.7475764453411102,0.747677356004715,0.01680883578956127,0.7475764453411102,0.747677356004715
,,,,,,,,,,,,,,,,,,,,,,,,,,0.01670684665441513,0.7319155633449554,0.7320432066917419,0.01670684665441513,0.7319155633449554,0.7320432066917419
12365414000.0,94.01,7.099999904632568,2793537536.0,170.56601381663774,192.0,0.07720947265625,6324224.0,1689.0542240142822,0.003170680021867156,0.02874755859375,1.8766342997550964,-0.018192129209637642,0.8659785389900208,-0.018766342662274837,0.0005742143839597702,0.0,-0.024308983236551285,1.3078925609588623,0.7876347310675003,5.3853678703308105,2.5115050077438354,5.361058712005615,2.839023232460022,192.11330127716064,0.7824486494064331,,,,,,
12365414000.0,88.94,7.099999904632568,2996126208.0,12058.19416978386,193.0,0.08636474609375,6356992.0,1691.7717121839523,0.0034025677014142275,0.03466796875,1.846987783908844,-0.017695057205855846,0.9930674433708191,-0.018469877541065216,0.0007748224306851625,0.0,0.025963997468352318,1.403247892856598,0.7619128443453312,5.546336889266968,2.5125725269317627,5.572301149368286,2.878255009651184,2.717488169670105,0.782840371131897,,,,,,
12365414000.0,81.085,7.050000190734863,2996126208.0,12222.684483529767,194.0,0.09490966796875,6389760.0,1694.4526289701462,0.0031426071655005217,0.030426025390625,1.8036546111106873,-0.01602047635242343,0.9385991394519806,-0.01803654618561268,0.0020160702988505363,0.0,0.04275061655789614,1.3651902675628662,0.7748123124721638,5.708303689956665,2.54007887840271,5.751054048538208,2.877198338508606,2.6809167861938477,0.7748533487319946,,,,,,
12365414000.0,77.215,7.199999809265137,2996126208.0,12042.745014272574,195.0,0.09124755859375,6422528.0,1697.17360329628,0.003127343486994505,0.031494140625,1.7617716193199158,-0.01649161661043763,0.9943305552005768,-0.01761771459132433,0.0011260986793786287,0.0,0.022003641352057457,1.4077714085578918,0.7574010303926176,5.63866662979126,2.4660876989364624,5.660669803619385,2.857601284980774,2.720974326133728,0.7786446809768677,,,,,,
12365414000.0,77.035,6.650000095367432,2996126208.0,11979.038046638208,196.0,0.10223388671875,6455296.0,1699.909048318863,0.003017233917489648,0.030914306640625,1.7300339341163635,-0.016444929875433445,1.0439369082450867,-0.017300337553024292,0.0008554086089134216,0.0,-0.008437538519501686,1.4399564862251282,0.7565450877771184,5.8734118938446045,2.5198382139205933,5.864974737167358,2.9153579473495483,2.735445022583008,0.7795774936676025,,,,,,
12365414000.0,69.185,6.699999809265137,2996126208.0,11852.069240278654,197.0,0.1031494140625,6488064.0,1702.6737976074219,0.003341471659950912,0.034393310546875,1.7412548065185547,-0.016551672481000423,1.1551141142845154,-0.017412547953426838,0.0008608745411038399,0.0,-0.06995297223329544,1.5130468010902405,0.7470835867966905,5.901909351348877,2.5909868478775024,5.831956624984741,3.0087016820907593,2.76474928855896,0.7891256809234619,,,,,,
12365414000.0,69.05,6.849999904632568,2996126208.0,11397.417298753164,198.0,0.0927734375,6520832.0,1705.5488349199295,0.003688672441057861,0.03924560546875,1.7648608088493347,-0.017031895462423563,1.0903930068016052,-0.017648608423769474,0.0006167124956846237,0.0,-0.02468450553715229,1.4744035601615906,0.7504390615662181,5.6584978103637695,2.5417104959487915,5.633813381195068,2.9512436389923096,2.8750373125076294,0.7809405326843262,,,,,,
12365414000.0,83.845,7.199999809265137,2996126208.0,12244.088209134057,199.0,0.09857177734375,6553600.0,1708.2250652313232,0.003428597701713443,0.0379638671875,1.7863318920135498,-0.016606696881353855,1.0653650760650635,-0.017863319255411625,0.0012566186487674713,0.0,0.044942463748157024,1.4564030766487122,0.7420574703083898,5.666215896606445,2.483646035194397,5.71115779876709,2.8699015378952026,2.676230311393738,0.7787624597549438,,,,,,
12365414000.0,74.345,6.849999904632568,2996126208.0,11288.193914155854,200.0,0.08453369140625,6586368.0,1711.1279211044312,0.005932176485657692,0.069488525390625,1.7981989979743958,-0.016035089269280434,0.9988588392734528,-0.01798199024051428,0.0019469000399112701,0.0,0.0021088775247335434,1.4013673663139343,0.7537758509109709,5.369776248931885,2.4333152770996094,5.371885061264038,2.8183513879776,2.90285587310791,0.7836525440216064,,,,,,
12365414000.0,87.775,7.0,2996126208.0,11655.57327684214,201.0,0.08941650390625,6619136.0,1713.9392800331116,0.005976007552817464,0.066009521484375,1.8557656407356262,-0.015981937758624554,1.0331670045852661,-0.01855765748769045,0.0025757206603884697,0.0,-0.001764317974448204,1.431471824645996,0.7555231374189608,5.445513010025024,2.538056492805481,5.443748950958252,2.8821641206741333,2.81135892868042,0.78648841381073,,,,,,
12365414000.0,73.395,7.099999904632568,2996126208.0,11780.626796437515,202.0,0.0946044921875,6651904.0,1716.7207958698273,0.004693446913734078,0.0550537109375,1.8108627200126648,-0.01570421177893877,1.0599496066570282,-0.018108626827597618,0.0024044131860136986,0.0,0.061640216037631035,1.4495679140090942,0.7517153727356516,5.532972574234009,2.5875988006591797,5.5946128368377686,2.9130088090896606,2.7815158367156982,0.7912392616271973,,,,,,
12365414000.0,83.49,7.550000190734863,2996126208.0,11573.745693918501,203.0,0.08880615234375,6684672.0,1719.5520313978195,0.0037304554134607315,0.0389404296875,1.8402384519577026,-0.017388411797583103,0.9436501860618591,-0.018402383662760258,0.0010139737278223038,0.0,0.07686037197709084,1.3725154399871826,0.7676179344473211,5.437286138534546,2.517317771911621,5.514146327972412,2.843635082244873,2.8312355279922485,0.7814844846725464,,,,,,
12365414000.0,91.02,6.849999904632568,2996126208.0,11800.123031318331,204.0,0.08331298828125,6717440.0,1722.3289515972137,0.0037850155495107174,0.041534423828125,1.8102771043777466,-0.01798357255756855,1.0016354620456696,-0.018102770671248436,0.00011920137330889702,0.0,-0.0035462500527501106,1.4157394766807556,0.7468125681700968,5.509635925292969,2.4649837017059326,5.506089448928833,2.8134008646011353,2.776920199394226,0.7744983434677124,,,,,,
12365414000.0,65.095,7.25,2996126208.0,11785.115970607252,205.0,0.09124755859375,6750208.0,1725.109407901764,0.0044405036605894566,0.047637939453125,1.7357540726661682,-0.01591005828231573,1.1111093163490295,-0.01735754031687975,0.0014474841300398111,0.0,-0.055120522156357765,1.4883369207382202,0.7273502323669051,5.729792356491089,2.5057934522628784,5.67467188835144,2.8485076427459717,2.780456304550171,0.7784123420715332,,,,,,
12365414000.0,78.25,6.550000190734863,2996126208.0,11470.212000039108,206.0,0.08148193359375,6782976.0,1727.966199040413,0.0031601747032254934,0.033203125,1.8438085317611694,-0.017932372633367777,0.9735782444477081,-0.018438085913658142,0.0005057123489677906,0.0,-0.07517555356025696,1.3859843611717224,0.7475129853158146,5.391625881195068,2.4090365171432495,5.316450595855713,2.7576780319213867,2.856791138648987,0.776950478553772,,,,,,
12365414000.0,87.285,7.449999809265137,2996126208.0,11462.620635912062,207.0,0.08880615234375,6815744.0,1730.8248821496964,0.004078100901097059,0.04345703125,1.8461272716522217,-0.016442424850538373,0.9495827257633209,-0.018461273051798344,0.0020188484340906143,0.0,0.09730708599090576,1.3671902418136597,0.7492263553157608,5.300629615783691,2.2866464853286743,5.397936582565308,2.7277406454086304,2.8586831092834473,0.7820084095001221,,,,,,
12365414000.0,96.16,7.050000190734863,2996126208.0,11519.070893948838,208.0,0.08270263671875,6848512.0,1733.6695560216904,0.003399085602723062,0.03729248046875,1.856870949268341,-0.018278541043400764,0.9508460164070129,-0.01856870949268341,0.00029016658663749695,0.0,0.03288693726062775,1.376720666885376,0.7460244465344517,5.335593223571777,2.3812363147735596,5.368480443954468,2.7328540086746216,2.8446738719940186,0.7845529317855835,,,,,,
12365414000.0,76.165,7.349999904632568,2996126208.0,11996.519505272568,209.0,0.0836181640625,6881280.0,1736.4010149240494,0.004210872342810035,0.04827880859375,1.8455603122711182,-0.016958002001047134,0.8658426403999329,-0.01845560409128666,0.0014975965023040771,0.0,0.029340922832489014,1.3069544434547424,0.7785968022120829,5.4463396072387695,2.4496378898620605,5.475680828094482,2.7779494524002075,2.731458902359009,0.782214879989624,,,,,,
12365414000.0,86.055,7.300000190734863,2996126208.0,11596.928687628817,210.0,0.07171630859375,6914048.0,1739.2265906333923,0.0025375010445713997,0.0205078125,1.8823251128196716,-0.017967109102755785,0.8469538688659668,-0.01882325019687414,0.0008561420254409313,0.0,-0.002545365132391453,1.2926254272460938,0.7571783377010892,5.2311670780181885,2.3273022174835205,5.228621959686279,2.6023346185684204,2.8255757093429565,0.8010205030441284,,,,,,
12365414000.0,85.665,7.349999904632568,2996126208.0,11864.439927569856,211.0,0.07415771484375,6946816.0,1741.9884572029114,0.0025701014092192054,0.02630615234375,1.8457506895065308,-0.01752612181007862,0.9179127812385559,-0.018457505851984024,0.0009313863702118397,0.0,0.0017918101511895657,1.3486045002937317,0.7437182147665092,5.36488151550293,2.3333516120910645,5.366673707962036,2.6585007905960083,2.761866569519043,0.806552529335022,,,,,,
12365414000.0,111.77,6.400000095367432,2996126208.0,11792.717176362283,212.0,0.0634765625,6979584.0,1744.7671213150024,0.0023371862480416894,0.02227783203125,1.8748369216918945,-0.01836595358327031,0.8782035410404205,-0.018748365342617035,0.0003824150189757347,0.0,-0.08792965486645699,1.3239355683326721,0.7342910461777441,5.155625820159912,2.2353506088256836,5.067696571350098,2.5646079778671265,2.7786641120910645,0.810555100440979,,,,,,
12365414000.0,104.71,6.949999809265137,2996126208.0,11611.352589871874,213.0,0.0762939453125,7012352.0,1747.5891870260239,0.002710970235057175,0.02587890625,1.7972791194915771,-0.01717793708667159,0.9399584531784058,-0.0179727915674448,0.0007948502898216248,0.0,-0.029002534691244364,1.3658481240272522,0.7424082178387003,5.381298780441284,2.3563066720962524,5.352296352386475,2.6901447772979736,2.8220657110214233,0.8108316659927368,,,,,,
12365414000.0,92.83,7.150000095367432,2996126208.0,11223.036397469847,214.0,0.068359375,7045120.0,1750.5088959932327,0.002435677801258862,0.02301025390625,1.8009885549545288,-0.017138504656031728,0.8868047297000885,-0.018009884282946587,0.0008713798597455025,0.0,0.06005267985165119,1.3274246454238892,0.7345656669870628,5.223158836364746,2.2517271041870117,5.283211708068848,2.5737210512161255,2.9197089672088623,0.803737998008728,,,,,,
12365414000.0,116.125,6.5,2996126208.0,11008.903830420964,215.0,0.074462890625,7077888.0,1753.4853957891464,0.0035295417765155435,0.036651611328125,1.762104570865631,-0.016574879176914692,0.9779102802276611,-0.017621045000851154,0.001046166755259037,0.0,-0.03787793777883053,1.390353262424469,0.720691019916565,5.28421425819397,2.2801631689071655,5.246336221694946,2.630732536315918,2.9764997959136963,0.8148961067199707,,,,,,
12365414000.0,84.02,7.5,2996126208.0,11411.256028837002,216.0,0.0830078125,7110656.0,1756.3569464683533,0.0025757155381143093,0.0245361328125,1.76864492893219,-0.016424368601292372,1.0048337280750275,-0.0176864480599761,0.0012620799243450165,0.0,0.08099902980029583,1.4127183556556702,0.7366787541113793,5.464010953903198,2.402949571609497,5.545010089874268,2.7397998571395874,2.871550679206848,0.7972649335861206,,,,,,
12365414000.0,93.875,7.25,2996126208.0,10950.494331405815,217.0,0.08056640625,7143424.0,1759.349322795868,0.0044134738855063915,0.0545654296875,1.8875486254692078,-0.018023525830358267,0.8703665435314178,-0.018875488080084324,0.0008519608527421951,0.0,0.040088587906211615,1.310519814491272,0.7656697094118083,5.234977960586548,2.355924963951111,5.275066375732422,2.703652501106262,2.9923763275146484,0.8157544136047363,,,,,,
12365414000.0,90.955,7.550000190734863,2996126208.0,11002.285812253478,218.0,0.08514404296875,7176192.0,1762.3276129961014,0.002540860674344003,0.021453857421875,1.7972089648246765,-0.017086086794734,0.9471543431282043,-0.017972090281546116,0.0008859960362315178,0.0,0.02498854324221611,1.3678222298622131,0.7574024937242303,5.588628768920898,2.481221318244934,5.613617181777954,2.778446674346924,2.9782902002334595,0.8068016767501831,,,,,,
12365414000.0,90.115,7.050000190734863,2996126208.0,11337.756897147208,219.0,0.0732421875,7208960.0,1765.2177790403366,0.004458240466192365,0.047637939453125,1.8350967168807983,-0.016157016158103943,0.9461914896965027,-0.018350967206060886,0.002193951979279518,0.0,0.02189051639288664,1.3541997075080872,0.7411718080255798,5.378316402435303,2.3684040307998657,5.400206565856934,2.6601120233535767,2.8901660442352295,0.8156721591949463,,,,,,
12365414000.0,94.57,6.849999904632568,2996126208.0,11614.862090512648,220.0,0.081787109375,7241728.0,1768.0389920473099,0.00267574202734977,0.025390625,1.744840681552887,-0.016649330034852028,1.1055936217308044,-0.017448406666517258,0.000799078494310379,0.0,-0.03602367173880339,1.4843487739562988,0.7164275907448912,5.598538398742676,2.4588547945022583,5.562514781951904,2.7868854999542236,2.8212130069732666,0.8120731115341187,,,,,,
12365414000.0,105.115,7.5,2996126208.0,11290.595219441606,221.0,0.0860595703125,7274496.0,1770.9412305355072,0.003395901760086417,0.0364990234375,1.7594569325447083,-0.01608737325295806,0.9786827266216278,-0.01759456843137741,0.0015071961097419262,0.0,0.03635818790644407,1.3912215828895569,0.7470294599357385,5.533238887786865,2.4444022178649902,5.569597005844116,2.7645846605300903,2.9022384881973267,0.7978920936584473,,,,,,
12365414000.0,68.81,7.099999904632568,2996126208.0,11479.334824312624,222.0,0.09124755859375,7307264.0,1773.7957513332367,0.004338602069765329,0.044342041015625,1.7165298461914062,-0.015497111715376377,1.0808384418487549,-0.017165296711027622,0.0016681849956512451,0.0,0.046119511127471924,1.4575377702713013,0.7365941307305297,5.499793291091919,2.4744410514831543,5.545912981033325,2.841245651245117,2.854520797729492,0.7940956354141235,,,,,,
12365414000.0,88.97,7.599999904632568,2996126208.0,10854.235251126003,223.0,0.09429931640625,7340032.0,1776.8146650791168,0.004486273042857647,0.0478515625,1.6998724937438965,-0.015369842760264874,1.0011219382286072,-0.016998724080622196,0.001628883183002472,0.0,0.05980769917368889,1.4148725271224976,0.7557760220623371,5.726044416427612,2.524450421333313,5.785851955413818,2.864390254020691,3.018913745880127,0.8042542934417725,,,,,,
,,,,,,,,,,,,,,,,,,,,,,,,,,0.017119518481194973,0.9461098313331604,0.9540013074874878,0.017119518481194973,0.9461098313331604,0.9540013074874878
,,,,,,,,,,,,,,,,,,,,,,,,,,0.016573362052440643,0.909830778837204,0.9098185300827026,0.016573362052440643,0.909830778837204,0.9098185300827026
,,,,,,,,,,,,,,,,,,,,,,,,,,0.017035980708897114,0.8884632289409637,0.888378769159317,0.017035980708897114,0.8884632289409637,0.888378769159317
,,,,,,,,,,,,,,,,,,,,,,,,,,0.0156434397213161,0.8608136475086212,0.8608350157737732,0.0156434397213161,0.8608136475086212,0.8608350157737732
,,,,,,,,,,,,,,,,,,,,,,,,,,0.016073914244771004,0.8507162034511566,0.850749135017395,0.016073914244771004,0.8507162034511566,0.850749135017395
,,,,,,,,,,,,,,,,,,,,,,,,,,0.016739429906010628,0.8413569331169128,0.8413967490196228,0.016739429906010628,0.8413569331169128,0.8413967490196228
12365462000.0,82.135,7.099999904632568,2793537536.0,170.30069415136285,224.0,0.09124755859375,7372800.0,1969.2272689342499,0.003825730294920504,0.0380859375,1.7161715030670166,-0.01617561117745936,0.9607943296432495,-0.017161715775728226,0.0009861048310995102,0.0,0.07513915002346039,1.379968523979187,0.7726156634964845,5.465954780578613,2.496978998184204,5.541094064712524,2.8926864862442017,192.41260385513306,0.7848761081695557,,,,,,
12365462000.0,83.05,7.25,2996126208.0,12078.214724300324,225.0,0.09765625,7405568.0,1971.940252661705,0.0016143103712238371,0.011871337890625,1.7029297351837158,-0.017107291612774134,0.9785408675670624,-0.0170292966067791,-7.799360901117325e-05,0.0,0.017593536525964737,1.397573709487915,0.7742921924861045,5.732832431793213,2.5693429708480835,5.750425577163696,2.9415154457092285,2.712983727455139,0.7682158946990967,,,,,,
12365462000.0,74.84,7.900000095367432,2996126208.0,11794.579282705392,226.0,0.10162353515625,7438336.0,1974.7184780836105,0.002544384216889739,0.023162841796875,1.758213758468628,-0.016597285866737366,0.9392672479152679,-0.017582138068974018,0.000984853133559227,0.0,0.12040572240948677,1.3640669584274292,0.7792025552872371,5.742742300033569,2.556361436843872,5.863147735595703,2.8990036249160767,2.7782254219055176,0.7815526723861694,,,,,,
12365462000.0,73.295,7.0,2996126208.0,12062.553335053692,227.0,0.0933837890625,7471104.0,1977.4349842071533,0.0020721612963825464,0.01654052734375,1.770662546157837,-0.016773461364209652,1.0090565085411072,-0.01770662609487772,0.0009331647306680679,0.0,-0.006559399887919426,1.4143826961517334,0.7609694319816858,5.814640760421753,2.56182599067688,5.808081388473511,2.891629457473755,2.7165061235427856,0.7816264629364014,,,,,,
12365462000.0,67.205,7.5,2996126208.0,11866.897490864743,228.0,0.10467529296875,7503872.0,1980.196278810501,0.002746545826084912,0.0286865234375,1.6620702743530273,-0.016310114413499832,1.034275472164154,-0.016620702110230923,0.00031058676540851593,0.0,0.056222788989543915,1.4304327368736267,0.7496101063519367,6.029787540435791,2.5200982093811035,6.086010217666626,2.8605499267578125,2.7612946033477783,0.7686536312103271,,,,,,
12365462000.0,66.17,7.599999904632568,2996126208.0,12311.398290508867,229.0,0.10528564453125,7536640.0,1982.8578773736954,0.002244201605208218,0.019683837890625,1.6811217069625854,-0.016314683482050896,1.0403202772140503,-0.01681121625006199,0.0004965323023498058,0.0,-0.0024553381372243166,1.4385635256767273,0.7480807601320576,6.04374361038208,2.513728380203247,6.041288137435913,2.8660796880722046,2.661598563194275,0.7813136577606201,,,,,,
12365462000.0,67.105,7.800000190734863,2996126208.0,12452.689090844222,230.0,0.09246826171875,7569408.0,1985.4892768859863,0.002153752720914781,0.02008056640625,1.6389263272285461,-0.015781501308083534,1.0663071870803833,-0.01638926286250353,0.0006077596917748451,0.0,-0.06705476716160774,1.45309180021286,0.7288894204542944,6.014929294586182,2.431856393814087,5.947874546051025,2.790740966796875,2.6313995122909546,0.7686491012573242,,,,,,
12365462000.0,67.275,7.550000190734863,2996126208.0,11964.423630608024,231.0,0.098876953125,7602176.0,1988.2280632257462,0.004592903191223741,0.05035400390625,1.6946274042129517,-0.015408959239721298,0.9547106623649597,-0.016946273855865,0.0015373136848211288,0.0,0.07088968902826309,1.380060851573944,0.7579000513716635,5.926371812820435,2.4532850980758667,5.9972615242004395,2.7924554347991943,2.7387863397598267,0.772352933883667,,,,,,
12365462000.0,67.19,7.300000190734863,2996126208.0,11833.758150875829,232.0,0.09521484375,7634944.0,1990.9970905780792,0.0031851003877818584,0.031951904296875,1.692908525466919,-0.015969144646078348,0.9325068593025208,-0.016929086297750473,0.0009599411860108376,0.0,-0.029954224824905396,1.3654866814613342,0.7724333710775739,5.82477593421936,2.519844174385071,5.794821739196777,2.863534927368164,2.769027352333069,0.7757480144500732,,,,,,
12365462000.0,80.94,7.150000095367432,2996126208.0,11664.820696583238,233.0,0.09735107421875,7667712.0,1993.8062207698822,0.0037822184385731816,0.039031982421875,1.743143081665039,-0.016457580029964447,0.9940041303634644,-0.017431430518627167,0.000973852351307869,0.0,-0.046246113954111934,1.4072343707084656,0.7548761928082341,5.821330547332764,2.492702603340149,5.7750842571258545,2.8497891426086426,2.8091301918029785,0.7794284820556641,,,,,,
12365462000.0,86.59,7.050000190734863,2996126208.0,11964.338224812478,234.0,0.0946044921875,7700480.0,1996.5450266599655,0.003751627868041396,0.040435791015625,1.7505245208740234,-0.015694858506321907,0.9434399604797363,-0.01750524528324604,0.0018103830516338348,0.0,0.03667381079867482,1.3651402592658997,0.775966377971723,5.74439811706543,2.4385868310928345,5.78107213973999,2.8655837774276733,2.738805890083313,0.7865055799484253,,,,,,
12365462000.0,72.085,7.550000190734863,2996126208.0,12045.52773272622,235.0,0.1019287109375,7733248.0,1999.2653723955154,0.006126232212409377,0.06524658203125,1.6322941184043884,-0.013476467225700617,1.0865222811698914,-0.016322940587997437,0.002846471033990383,0.0,0.09164093807339668,1.4705393314361572,0.7317782523222567,5.945915222167969,2.424322724342346,6.037556171417236,2.83875572681427,2.7203457355499268,0.7719705104827881,,,,,,
12365462000.0,68.625,6.900000095367432,2996126208.0,11704.226682915247,236.0,0.1055908203125,7766016.0,2002.065044760704,0.0028786136535927653,0.033477783203125,1.6404625177383423,-0.015417375601828098,1.117551565170288,-0.016404624097049236,0.0009872503578662872,0.0,0.018124699592590332,1.4910764694213867,0.7276981214208365,6.15438437461853,2.456005811691284,6.172508955001831,2.8598746061325073,2.7996723651885986,0.7800940275192261,,,,,,
12365462000.0,81.505,7.75,2996126208.0,10822.52812370931,237.0,0.09918212890625,7798784.0,2005.092803120613,0.003328191814944148,0.034454345703125,1.6491268873214722,-0.015516587300226092,1.0440837144851685,-0.016491268761456013,0.0009746821597218513,0.0,0.063487708568573,1.4346749782562256,0.7369956094553982,6.0834059715271,2.4419331550598145,6.146893262863159,2.791256308555603,3.0277583599090576,0.7817549705505371,,,,,,
12365462000.0,79.71,7.449999809265137,2996126208.0,11762.979589677188,238.0,0.09735107421875,7831552.0,2007.8784918785095,0.0026958428788930178,0.02606201171875,1.635110318660736,-0.015035427175462246,1.0671555995941162,-0.01635110331699252,0.001315675675868988,0.0,0.026395917870104313,1.4600478410720825,0.7220514792990951,6.163527965545654,2.4241307973861694,6.1899237632751465,2.75587260723114,2.7856887578964233,0.7902650833129883,,,,,,
12365462000.0,71.185,7.449999809265137,2996126208.0,11725.248936359661,239.0,0.0994873046875,7864320.0,2010.673144698143,0.002990139415487647,0.025726318359375,1.6620277166366577,-0.015647720079869032,1.0606191754341125,-0.016620276495814323,0.0009725559502840042,0.0,0.04098101519048214,1.4442740082740784,0.7246235575542398,6.20142388343811,2.450567126274109,6.242404937744141,2.7476327419281006,2.794652819633484,0.7793526649475098,,,,,,
12365462000.0,67.395,7.849999904632568,2996126208.0,11694.389800651456,240.0,0.1080322265625,7897088.0,2013.4751720428467,0.0026924136327579618,0.02630615234375,1.6230937838554382,-0.01444959337823093,1.1385522484779358,-0.016230938024818897,0.001781343948096037,0.0,0.04025897569954395,1.5094751715660095,0.7014898041653839,6.367389678955078,2.4397828578948975,6.40764856338501,2.7636266946792603,2.8020273447036743,0.7726763486862183,,,,,,
12365462000.0,68.035,7.849999904632568,2996126208.0,11359.778809356721,241.0,0.108642578125,7929856.0,2016.359735250473,0.0035061994567513466,0.033966064453125,1.595958948135376,-0.014675365760922432,1.0676816701889038,-0.015959588810801506,0.0012842239812016487,0.0,0.009271267801523209,1.4579195380210876,0.7250470573664818,6.403653144836426,2.422458291053772,6.412924528121948,2.7785356044769287,2.8845632076263428,0.8006112575531006,,,,,,
12365462000.0,79.05,7.75,2996126208.0,11389.182447074272,242.0,0.1068115234375,7962624.0,2019.2368513345718,0.0035339518217369914,0.03363037109375,1.6572361588478088,-0.0153539152815938,1.087439477443695,-0.01657236088067293,0.0012184451334178448,0.0,0.0834774523973465,1.4717655181884766,0.7150279950360112,6.34696102142334,2.4575952291488647,6.430438041687012,2.754203200340271,2.877116084098816,0.8143551349639893,,,,,,
12365462000.0,66.075,7.400000095367432,2996126208.0,11406.942964732069,243.0,0.09490966796875,7995392.0,2022.109487771988,0.003606133395805955,0.036529541015625,1.7072061896324158,-0.015451900544576347,0.993026465177536,-0.017072062008082867,0.0016201622784137726,0.0,-0.005831112153828144,1.4042361378669739,0.7233059992888223,6.174912929534912,2.3432050943374634,6.169081926345825,2.66789972782135,2.8726364374160767,0.8140900135040283,,,,,,
12365462000.0,95.98,7.5,2996126208.0,11041.976218597534,244.0,0.0958251953125,8028160.0,2025.0770725011826,0.0027907458133995533,0.024261474609375,1.7115182876586914,-0.016208027955144644,1.0197250247001648,-0.017115182243287563,0.0009071547538042068,0.0,0.08609317243099213,1.4259159564971924,0.72351019124518,6.137517929077148,2.3684297800064087,6.223610877990723,2.7105655670166016,2.967584729194641,0.827365517616272,,,,,,
12365462000.0,76.33,7.150000095367432,2996126208.0,11490.913341644464,245.0,0.09765625,8060928.0,2027.9287170171738,0.0034508554963395,0.03448486328125,1.7423813343048096,-0.016889747232198715,1.0594954192638397,-0.017423813231289387,0.0005340682109817863,0.0,0.005213736556470394,1.4533268213272095,0.7248096043509814,6.22901725769043,2.413514494895935,6.234231233596802,2.769532799720764,2.851644515991211,0.8132374286651611,,,,,,
12365462000.0,78.02,6.75,2996126208.0,11395.21976871217,246.0,0.0872802734375,8093696.0,2030.804308772087,0.0032889461144804955,0.033172607421875,1.812427818775177,-0.01731406757608056,1.063105285167694,-0.018124276772141457,0.0008102105930447578,0.0,-0.013952914625406265,1.4492639303207397,0.7028462041626813,6.136629581451416,2.3123650550842285,6.122676372528076,2.655388832092285,2.87559175491333,0.8122739791870117,,,,,,
12365462000.0,77.98,7.5,2996126208.0,11443.967451022374,247.0,0.10009765625,8126464.0,2033.6676514148712,0.0026820600032806396,0.025115966796875,1.7123904824256897,-0.015547107439488173,1.0778746008872986,-0.017123905941843987,0.0015767980366945267,0.0,0.06938749924302101,1.4632808566093445,0.6985922181630728,6.2932257652282715,2.2879695892333984,6.362613201141357,2.6622684001922607,2.8633426427841187,0.8086131811141968,,,,,,
12365462000.0,72.315,7.449999809265137,2996126208.0,11026.274323779962,248.0,0.10406494140625,8159232.0,2036.6394621133804,0.002869394957087934,0.027191162109375,1.7388773560523987,-0.01679952908307314,1.1167612075805664,-0.01738877408206463,0.0005892422050237656,0.0,0.010958721861243248,1.4915485382080078,0.7007629907723145,6.4349164962768555,2.3534324169158936,6.445875406265259,2.7264723777770996,2.9718106985092163,0.8214651346206665,,,,,,
12365462000.0,69.915,7.849999904632568,2996126208.0,11138.687726603526,249.0,0.10345458984375,8192000.0,2039.5812808275223,0.005153878591954708,0.054779052734375,1.794891119003296,-0.014922421425580978,1.0936930775642395,-0.01794891059398651,0.0030264873057603836,0.0,0.008852409198880196,1.4691848158836365,0.7051094925859874,6.391664028167725,2.332860827445984,6.4005162715911865,2.7049033641815186,2.9418187141418457,0.8236995935440063,,,,,,
12365462000.0,73.64,7.449999809265137,2996126208.0,11530.982728245659,250.0,0.0897216796875,8224768.0,2042.4230160713196,0.005107608623802662,0.056884765625,1.8367314338684082,-0.016214693896472454,1.0132532119750977,-0.018367313779890537,0.002152618020772934,0.0,-0.013112704269587994,1.4147616624832153,0.727600477176493,6.26301383972168,2.381877064704895,6.249901056289673,2.7108113765716553,2.8417352437973022,0.8142465353012085,,,,,,
12365462000.0,76.66,7.699999809265137,2996126208.0,11843.50643816706,251.0,0.091552734375,8257536.0,2045.1897642612457,0.0035496894270181656,0.03271484375,1.8367080092430115,-0.017230786383152008,0.9726651012897491,-0.018367079086601734,0.00113629549741745,0.0,0.05670587671920657,1.3796462416648865,0.732158037668456,6.199588775634766,2.3370991945266724,6.256294250488281,2.6614389419555664,2.7667481899261475,0.7964674234390259,,,,,,
12365462000.0,89.99,6.949999809265137,2996126208.0,11029.112414128775,252.0,0.07843017578125,8290304.0,2048.1608102321625,0.003397426102310419,0.033355712890625,1.88843435049057,-0.018018832430243492,0.8961627781391144,-0.018884343095123768,0.0008655088022351265,0.0,0.013442407362163067,1.3354192972183228,0.7370550453403547,5.880574464797974,2.265522837638855,5.894016981124878,2.5975857973098755,2.971045970916748,0.8062918186187744,,,,,,
12365462000.0,91.495,8.0,2996126208.0,10947.803375384647,253.0,0.079345703125,8323072.0,2051.1539220809937,0.0025665080174803734,0.022308349609375,1.9803708791732788,-0.018742633750662208,0.7955294549465179,-0.019803709350526333,0.0010610772296786308,0.0,0.06369452737271786,1.2448638081550598,0.7810331784302186,6.0572521686553955,2.3805224895477295,6.120946645736694,2.65777850151062,2.9931118488311768,0.7977532148361206,,,,,,
12365462000.0,94.94,7.349999904632568,2996126208.0,11239.05594161884,254.0,0.08148193359375,8355840.0,2054.0694694519043,0.0024535037809982896,0.023101806640625,1.9218420386314392,-0.018462397158145905,0.850763201713562,-0.01921841874718666,0.0007560215890407562,0.0,0.02977732941508293,1.3027295470237732,0.7586349136043932,6.037597417831421,2.3306655883789062,6.06737494468689,2.6559884548187256,2.9155473709106445,0.8014818429946899,,,,,,
12365462000.0,92.735,7.550000190734863,2996126208.0,11567.683286054582,255.0,0.0787353515625,8388608.0,2056.9021887779236,0.0038319617742672563,0.04180908203125,1.908630609512329,-0.017981568817049265,0.8134867250919342,-0.019086305052042007,0.0011047355365008116,0.0,-0.012727681547403336,1.2716853618621826,0.7534070737397858,6.224250793457031,2.295594096183777,6.2115232944488525,2.5579638481140137,2.832719326019287,0.8085290193557739,,,,,,
,,,,,,,,,,,,,,,,,,,,,,,,,,0.02031553164124489,0.9871719777584076,0.9993142485618591,0.02031553164124489,0.9871719777584076,0.9993142485618591
,,,,,,,,,,,,,,,,,,,,,,,,,,0.019131753593683243,0.9357958137989044,0.9357344210147858,0.019131753593683243,0.9357958137989044,0.9357344210147858
,,,,,,,,,,,,,,,,,,,,,,,,,,0.018459683284163475,0.91043820977211,0.9104063212871552,0.018459683284163475,0.91043820977211,0.9104063212871552
,,,,,,,,,,,,,,,,,,,,,,,,,,0.018501522950828075,0.8952175974845886,0.8952088952064514,0.018501522950828075,0.8952175974845886,0.8952088952064514
,,,,,,,,,,,,,,,,,,,,,,,,,,0.018572131171822548,0.8783228099346161,0.8783022463321686,0.018572131171822548,0.8783228099346161,0.8783022463321686
,,,,,,,,,,,,,,,,,,,,,,,,,,0.018755790777504444,0.8633371293544769,0.8633588254451752,0.018755790777504444,0.8633371293544769,0.8633588254451752
12365590000.0,98.67,7.699999809265137,2793537536.0,169.2222460211983,256.0,0.07843017578125,8421376.0,2250.5410321950912,0.00425763544626534,0.04803466796875,1.859394609928131,-0.01775653287768364,0.8261855840682983,-0.01859394460916519,0.0008374117314815521,0.0,-0.022545913234353065,1.2807196974754333,0.7722979554750019,6.15254807472229,2.414634108543396,6.130002021789551,2.6903016567230225,193.63884341716766,0.7845388650894165,,,,,,
