CpuMaxMemory,EpLenMean,EpRewMean,GpuMaxMemory,IPS_total,Iter,Misc/FrameRewMean,Misc/InteractCount,Misc/TimeElapsed,Opt/approxkl,Opt/clipfrac,Opt/entropy,Opt/loss_pi,Opt/loss_vf,Opt/negent,Opt/pg,Opt/pi_kl,VFStats/AdvMean,VFStats/AdvStd,VFStats/EV,VFStats/VpredMean,VFStats/VpredStd,VFStats/VtargMean,VFStats/VtargStd,del_time,wait_optimization,scaled/pol_distance,scaled/vf_aux,scaled/vf_true,unscaled/pol_distance,unscaled/vf_aux,unscaled/vf_true
2431784000.0,145.26666666666668,3.3333332538604736,6178611712.0,2430.163536045007,0.0,0.0030517578125,16384.0,6.741933107376099,0.008831399492919445,0.1171875,2.6942341327667236,-0.026006978005170822,0.16113796830177307,-0.026942338794469833,0.0009353645145893097,0.0,0.06178903579711914,0.5548555850982666,-0.0009687515013325765,-0.06481917202472687,0.017015555873513222,-0.0030301320366561413,0.5545869469642639,6.741933107376099,4.117522716522217,,,,,,
2647064000.0,273.2291666666667,3.9583332538604736,6381200384.0,2451.7503045980443,1.0,0.008544921875,32768.0,13.424505949020386,0.005651924293488264,0.07867431640625,2.6888818740844727,-0.027081012725830078,0.4147690534591675,-0.026888813823461533,-0.00019220076501369476,0.0,0.16495609283447266,0.9075900316238403,0.0071608696933765925,0.03688511997461319,0.016272975131869316,0.20184122025966644,0.9108571410179138,6.682572841644287,4.150522470474243,,,,,,
2869564000.0,324.0204081632653,4.489795684814453,6381200384.0,2478.976400628724,2.0,0.0152587890625,49152.0,20.033685445785522,0.0011570601491257548,0.001220703125,2.681673765182495,-0.026901617646217346,0.652689516544342,-0.02681673876941204,-8.488213643431664e-05,0.0,0.25029003620147705,1.1406022310256958,0.022114240626346593,0.364949494600296,0.07734456658363342,0.6152395009994507,1.1534271240234375,6.609179496765137,4.1241350173950195,,,,,,
3090960000.0,340.39,4.599999904632568,6381200384.0,2444.4088128438298,3.0,0.01708984375,65536.0,26.736328601837158,0.0054496051743626595,0.06842041015625,2.627394676208496,-0.028225265443325043,0.7094988822937012,-0.026273945346474648,-0.0019513200968503952,0.0,0.28669071197509766,1.1862385272979736,0.0604822315424689,0.5487455725669861,0.12945590913295746,0.8354363441467285,1.2238258123397827,6.702643156051636,4.158424377441406,,,,,,
3319284000.0,201.74,3.5999999046325684,6381200384.0,2445.138886191617,4.0,0.02197265625,81920.0,33.436970472335815,0.0023519503884017467,0.0223388671875,2.628194808959961,-0.026411350816488266,0.8485585451126099,-0.026281949132680893,-0.00012940401211380959,0.0,0.3277692496776581,1.306237816810608,0.10628066575311657,0.5768063068389893,0.21481136977672577,0.9045755863189697,1.3817251920700073,6.700641870498657,4.166343450546265,,,,,,
3541372000.0,163.86,4.199999809265137,6381200384.0,2475.8757625481594,5.0,0.0274658203125,98304.0,40.05442690849304,0.003992432728409767,0.033935546875,2.597308397293091,-0.026050884276628494,0.8841527104377747,-0.025973083451390266,-7.780245505273342e-05,0.0,0.3707221746444702,1.3489010334014893,0.2245721438854782,1.0709863901138306,0.4361060857772827,1.4417085647583008,1.5318257808685303,6.617456436157227,4.157356023788452,,,,,,
3760996000.0,115.96,4.099999904632568,6381200384.0,2443.3509197391154,6.0,0.035400390625,114688.0,46.7599720954895,0.004745226353406906,0.0482177734375,2.5490593910217285,-0.026931773871183395,1.0682679414749146,-0.025490591302514076,-0.0014411844313144684,0.0,0.4625634551048279,1.44308602809906,0.37497074856483015,1.486741065979004,0.8736214637756348,1.9493045806884766,1.8253326416015625,6.70554518699646,4.197979927062988,,,,,,
3977164000.0,100.17,4.300000190734863,6381200384.0,2415.9494638024416,7.0,0.0390625,131072.0,53.54157090187073,0.004604058805853128,0.0457763671875,2.543004035949707,-0.025008343160152435,1.4884815216064453,-0.025430040434002876,0.00042169634252786636,0.0,0.2852753698825836,1.443751335144043,0.4661246141863732,2.7592172622680664,1.2388232946395874,3.044492483139038,1.9759337902069092,6.781598806381226,4.201118230819702,,,,,,
4188260000.0,102.78,5.599999904632568,6381200384.0,2431.7585820021814,8.0,0.0555419921875,147456.0,60.27908182144165,0.004588182084262371,0.066162109375,2.5401573181152344,-0.025646857917308807,1.3724769353866577,-0.02540157176554203,-0.0002452894113957882,0.0,0.31748825311660767,1.5463060140609741,0.41618426429753286,3.7386982440948486,1.2051571607589722,4.056186676025391,2.0237534046173096,6.737510919570923,4.1952784061431885,,,,,,
4394300000.0,100.9,4.400000095367432,6381200384.0,2450.6936523662444,9.0,0.0408935546875,163840.0,66.96453595161438,0.0025388039648532867,0.0142822265625,2.591707944869995,-0.02607256919145584,1.133428931236267,-0.02591707743704319,-0.00015549175441265106,0.0,0.05860649049282074,1.4768486022949219,0.4009961060275886,3.756006956100464,1.189454197883606,3.8146133422851562,1.908187747001648,6.6854541301727295,4.18770170211792,,,,,,
4596768000.0,111.44,4.199999809265137,6381200384.0,2454.9374872487497,10.0,0.035400390625,180224.0,73.63843297958374,0.004361794795840979,0.05194091796875,2.5604422092437744,-0.02700144611299038,0.8780012726783752,-0.02560442127287388,-0.00139702670276165,0.0,0.08231379836797714,1.3628281354904175,0.49431594861356165,3.5061564445495605,1.2197321653366089,3.588470458984375,1.916467547416687,6.67389702796936,4.183210611343384,,,,,,
4798364000.0,113.07,4.800000190734863,6381200384.0,2483.6192367315916,11.0,0.037841796875,196608.0,80.23525738716125,0.001825857674703002,0.00250244140625,2.607930898666382,-0.0257081501185894,0.9462395906448364,-0.02607930824160576,0.00037116208113729954,0.0,0.15501508116722107,1.3550325632095337,0.5696930852232418,3.3998360633850098,1.4166866540908813,3.5548510551452637,2.0656678676605225,6.596824407577515,4.19388747215271,,,,,,
4999476000.0,134.11,5.300000190734863,6381200384.0,2454.55754070321,12.0,0.040283203125,212992.0,86.91018748283386,0.0016828954685479403,0.01837158203125,2.60551118850708,-0.026753053069114685,0.9570690393447876,-0.02605510875582695,-0.0006979424506425858,0.0,0.16148842871189117,1.290116310119629,0.6277063452953524,3.6432905197143555,1.5896204710006714,3.804779052734375,2.114394187927246,6.674930095672607,4.205048561096191,,,,,,
5200316000.0,110.66,4.599999904632568,6381200384.0,2464.929961164862,13.0,0.0408935546875,229376.0,93.55702948570251,0.0022924758959561586,0.01483154296875,2.563413143157959,-0.026333210989832878,1.0022449493408203,-0.02563413232564926,-0.000699077732861042,0.0,0.2057834267616272,1.3906584978103638,0.5564657376278284,3.4348649978637695,1.3594001531600952,3.640648365020752,2.0881268978118896,6.646842002868652,4.180837631225586,,,,,,
5399484000.0,102.09,4.599999904632568,6381200384.0,2404.1762712642385,14.0,0.047607421875,245760.0,100.3718376159668,0.004212027881294489,0.03253173828125,2.4973671436309814,-0.02546907216310501,1.056882619857788,-0.0249736700206995,-0.0004954002797603607,0.0,0.17592884600162506,1.4258280992507935,0.6669401710573593,3.655137300491333,1.9025789499282837,3.831066131591797,2.470621109008789,6.814808130264282,4.19926643371582,,,,,,
5598768000.0,105.07,4.400000095367432,6381200384.0,2390.906384690651,15.0,0.0372314453125,262144.0,107.22446894645691,0.0037682184483855963,0.02520751953125,2.5899832248687744,-0.02457469142973423,1.1635297536849976,-0.02589983493089676,0.0013251407071948051,0.0,0.08499529212713242,1.493944764137268,0.6107779429207421,3.8728716373443604,1.9917380809783936,3.957866907119751,2.39461612701416,6.852631330490112,4.211742401123047,,,,,,
5797780000.0,103.72,4.300000190734863,6381200384.0,2398.550915738949,16.0,0.045166015625,278528.0,114.05525994300842,0.004560710862278938,0.04266357421875,2.5436384677886963,-0.024782629683613777,1.2746509313583374,-0.025436382740736008,0.0006537511944770813,0.0,0.051805462688207626,1.4814934730529785,0.6056806022317959,4.0987701416015625,1.8214235305786133,4.150575637817383,2.3592588901519775,6.830790996551514,4.195199489593506,,,,,,
5997052000.0,112.63,4.900000095367432,6381200384.0,2412.6935589017694,17.0,0.0372314453125,294912.0,120.84601044654846,0.0015741433016955853,0.00299072265625,2.6224653720855713,-0.026343252509832382,1.1090178489685059,-0.0262246523052454,-0.00011859973892569542,0.0,0.01738506555557251,1.3373918533325195,0.6326540653418523,4.175987243652344,1.691773533821106,4.193371772766113,2.2065863609313965,6.790750503540039,4.202016592025757,,,,,,
6195544000.0,136.77,4.099999904632568,6381200384.0,2428.8080864373856,18.0,0.029296875,311296.0,127.59170603752136,0.0008296245359815657,0.0006103515625,2.6203458309173584,-0.025831716135144234,0.7340700030326843,-0.02620345540344715,0.00037173181772232056,0.0,0.025936152786016464,1.168201208114624,0.6447184246309763,3.9044861793518066,1.4397594928741455,3.930422306060791,1.9598883390426636,6.7456955909729,4.193208456039429,,,,,,
6395176000.0,150.92,5.300000190734863,6381200384.0,2400.5578033359484,19.0,0.0360107421875,327680.0,134.41678643226624,0.000823995447717607,0.0001220703125,2.6378977298736572,-0.026088178157806396,0.6757331490516663,-0.02637897990643978,0.0002908008173108101,0.0,0.17551302909851074,1.1863651275634766,0.658546976487028,3.7064828872680664,1.4456217288970947,3.881995916366577,2.0302658081054688,6.825080394744873,4.192073345184326,,,,,,
6592276000.0,134.31,4.599999904632568,6381200384.0,2362.6750586736584,20.0,0.0311279296875,344064.0,141.3512990474701,0.0029389341361820698,0.02911376953125,2.6154236793518066,-0.026617372408509254,0.6001750230789185,-0.026154235005378723,-0.0004631374031305313,0.0,0.06112085282802582,1.083678126335144,0.7360529225053543,3.654146671295166,1.6356568336486816,3.7152676582336426,2.1093175411224365,6.934512615203857,4.2156805992126465,,,,,,
6790720000.0,136.4,4.599999904632568,6381200384.0,2379.798705174633,21.0,0.037841796875,360448.0,148.23591494560242,0.0007219676626846194,0.0008544921875,2.6156203746795654,-0.02592303231358528,1.0005273818969727,-0.02615620382130146,0.0002331719733774662,0.0,0.11096569150686264,1.3686020374298096,0.6797273026338538,3.694885730743408,1.9881974458694458,3.805851459503174,2.418339252471924,6.884615898132324,4.208740711212158,,,,,,
6988936000.0,110.29,3.700000047683716,6381200384.0,2403.1316462465365,22.0,0.0311279296875,376832.0,155.05368542671204,0.003597797593101859,0.04241943359375,2.567197561264038,-0.02643936686217785,0.9108716249465942,-0.025671975687146187,-0.0007673930376768112,0.0,0.08249759674072266,1.3266618251800537,0.6025115136293342,3.200866222381592,1.536690592765808,3.2833638191223145,2.104252576828003,6.817770481109619,4.205145359039307,,,,,,
7186892000.0,102.17,4.199999809265137,6381200384.0,2407.9089315740794,23.0,0.048828125,393216.0,161.8579294681549,0.0012571268016472459,0.0001220703125,2.578324794769287,-0.025528009980916977,0.8690732717514038,-0.025783246383070946,0.0002552419900894165,0.0,0.27691230177879333,1.321244716644287,0.6807625660661396,3.1806106567382812,1.5096694231033325,3.4575228691101074,2.338440418243408,6.804244041442871,4.202311277389526,,,,,,
7385140000.0,97.24,4.400000095367432,6381200384.0,2403.2981368946807,24.0,0.050048828125,409600.0,168.67522764205933,0.005026419647037983,0.05487060546875,2.500580310821533,-0.025527164340019226,1.0765080451965332,-0.025005804374814034,-0.0005213599652051926,0.0,0.2357322871685028,1.4553000926971436,0.6668292177735927,3.393825054168701,1.8205970525741577,3.6295571327209473,2.521268606185913,6.817298173904419,4.202405214309692,,,,,,
7584740000.0,94.53,6.0,6381200384.0,2412.7136348674885,25.0,0.06103515625,425984.0,175.46592164039612,0.002168993465602398,0.0093994140625,2.5089499950408936,-0.02486177533864975,1.2157423496246338,-0.025089500471949577,0.00022772327065467834,0.0,0.4276827275753021,1.4867280721664429,0.7220872932530498,3.416442632675171,2.248910427093506,3.844125270843506,2.820183038711548,6.790693998336792,4.198657035827637,,,,,,
7782524000.0,80.86,5.199999809265137,6381200384.0,2416.1008306464614,26.0,0.0567626953125,442368.0,182.24709558486938,0.0024627577513456345,0.00982666015625,2.458383798599243,-0.025360582396388054,1.4256889820098877,-0.024583837017416954,-0.0007767481729388237,0.0,0.1786373257637024,1.6208640336990356,0.7060201600847069,4.071608543395996,2.5493228435516357,4.250245571136475,2.9894258975982666,6.781173944473267,4.196653127670288,,,,,,
7980772000.0,68.25,4.699999809265137,6381200384.0,2418.2263848032035,27.0,0.064697265625,458752.0,189.0223090648651,0.005324794910848141,0.047119140625,2.353931188583374,-0.024349648505449295,1.9597562551498413,-0.023539310321211815,-0.0008103363215923309,0.0,0.12064199149608612,1.992692232131958,0.5445457597745578,4.394317626953125,2.5302393436431885,4.514960289001465,2.952690362930298,6.7752134799957275,4.193436622619629,,,,,,
8178864000.0,76.39,4.300000190734863,6381200384.0,2400.7917060818854,28.0,0.0628662109375,475136.0,195.84672451019287,0.001087802927941084,0.00091552734375,2.434075355529785,-0.023590154945850372,1.665854573249817,-0.024340754374861717,0.0007505994290113449,0.0,0.12735408544540405,1.6840078830718994,0.6195477818581626,4.406078338623047,2.1132054328918457,4.533432483673096,2.7301971912384033,6.824415445327759,4.203872203826904,,,,,,
8376944000.0,80.53,5.199999809265137,6381200384.0,2439.835140021579,29.0,0.064697265625,491520.0,202.56193232536316,0.0029824620578438044,0.02642822265625,2.368577718734741,-0.023417703807353973,1.7396061420440674,-0.023685777559876442,0.00026807188987731934,0.0,0.07627720385789871,1.7253764867782593,0.6054981825946686,4.593761920928955,2.1426963806152344,4.670039176940918,2.747004270553589,6.715207815170288,4.196652889251709,,,,,,
8574908000.0,68.91,4.300000190734863,6381200384.0,2401.211067151469,30.0,0.064697265625,507904.0,209.385155916214,0.005090687423944473,0.04095458984375,2.451613187789917,-0.023793794214725494,1.4474787712097168,-0.024516131728887558,0.0007223375141620636,0.0,0.20517267286777496,1.6368753910064697,0.5846224990772537,3.9898972511291504,1.7454566955566406,4.195069789886475,2.5397684574127197,6.82322359085083,4.208373069763184,,,,,,
8773704000.0,71.38,4.199999809265137,6381200384.0,2417.1790396902275,31.0,0.064697265625,524288.0,216.1633050441742,0.005165616516023874,0.04034423828125,2.312293291091919,-0.022656312212347984,1.5102920532226562,-0.023122934624552727,0.00046662683598697186,0.0,0.22311171889305115,1.6818045377731323,0.590934667364621,4.169101715087891,1.930442452430725,4.392212867736816,2.6295363903045654,6.778149127960205,4.208621978759766,,,,,,
,,,,,,,,,,,,,,,,,,,,,,,,,,0.014010511338710785,2.3967204093933105,2.046190023422241,0.014010511338710785,2.3967204093933105,2.046190023422241
,,,,,,,,,,,,,,,,,,,,,,,,,,0.005858135409653187,1.8223012685775757,1.790335774421692,0.005858135409653187,1.8223012685775757,1.790335774421692
,,,,,,,,,,,,,,,,,,,,,,,,,,0.0036950139328837395,1.742500901222229,1.719175934791565,0.0036950139328837395,1.742500901222229,1.719175934791565
,,,,,,,,,,,,,,,,,,,,,,,,,,0.004328431561589241,1.7329866886138916,1.7055820226669312,0.004328431561589241,1.7329866886138916,1.7055820226669312
,,,,,,,,,,,,,,,,,,,,,,,,,,0.003028515027835965,1.6617352962493896,1.6227800846099854,0.003028515027835965,1.6617352962493896,1.6227800846099854
,,,,,,,,,,,,,,,,,,,,,,,,,,0.005392573308199644,1.7144677639007568,1.6822800636291504,0.005392573308199644,1.7144677639007568,1.6822800636291504
8787428000.0,85.58,5.699999809265137,6188634112.0,18.390367690048823,32.0,0.06591796875,540672.0,1107.0644700527191,0.005464915186166763,0.05645751953125,2.4282796382904053,-0.022672506049275398,1.00578773021698,-0.024282798171043396,0.0016102902591228485,0.0,0.43398016691207886,1.4305000305175781,0.7592313995658747,3.584644317626953,2.3295440673828125,4.018624305725098,2.9153311252593994,890.9011650085449,4.263038158416748,,,,,,
8787428000.0,79.87,5.199999809265137,6391222784.0,2439.328837839447,33.0,0.06591796875,557056.0,1113.7810716629028,0.006245414726436138,0.07037353515625,2.410370349884033,-0.022472310811281204,1.3725773096084595,-0.02410370297729969,0.0016313958913087845,0.0,0.36185356974601746,1.6889479160308838,0.6895101311332872,4.096920490264893,2.510418653488159,4.458773612976074,3.031045913696289,6.716601610183716,4.212960720062256,,,,,,
8787428000.0,73.55,4.800000190734863,6391222784.0,2444.601421493902,34.0,0.0665283203125,573440.0,1120.4831867218018,0.0057006338611245155,0.07183837890625,2.3781800270080566,-0.023057863116264343,1.451082706451416,-0.023781800642609596,0.0007239370606839657,0.0,0.11644347012042999,1.7093517780303955,0.6966099937883994,4.358198165893555,2.574444055557251,4.474641799926758,3.1033501625061035,6.702115058898926,4.205039978027344,,,,,,
8787428000.0,74.23,5.400000095367432,6391222784.0,2383.966493775743,35.0,0.064697265625,589824.0,1127.3557665348053,0.004911346361041069,0.0322265625,2.3453564643859863,-0.023586466908454895,1.4992895126342773,-0.023453565314412117,-0.00013290159404277802,0.0,0.1721835434436798,1.7376766204833984,0.6782459678660219,4.596502304077148,2.6523263454437256,4.768686294555664,3.0634233951568604,6.87257981300354,4.215878963470459,,,,,,
8787428000.0,78.01,4.400000095367432,6391222784.0,2401.821789268102,36.0,0.0592041015625,606208.0,1134.177255153656,0.005014097783714533,0.02630615234375,2.4628593921661377,-0.022840997204184532,1.2289340496063232,-0.024628594517707825,0.0017875987105071545,0.0,-0.042875003069639206,1.5459444522857666,0.7128557203519956,4.375856399536133,2.3115203380584717,4.332982063293457,2.8849871158599854,6.821488618850708,4.1934425830841064,,,,,,
8787428000.0,80.53,5.5,6391222784.0,2425.0665402460536,37.0,0.064697265625,622592.0,1140.9333584308624,0.0015116671565920115,0.0068359375,2.428828716278076,-0.024421973153948784,1.3856898546218872,-0.02428828738629818,-0.00013368576765060425,0.0,0.02300972118973732,1.6601910591125488,0.7194466106686848,4.918632984161377,2.739905595779419,4.941642761230469,3.134371042251587,6.756103277206421,4.194056272506714,,,,,,
8787428000.0,77.03,5.5,6391222784.0,2458.2718144577316,38.0,0.068359375,638976.0,1147.5982031822205,0.0007723268354311585,0.00115966796875,2.3928110599517822,-0.023659290745854378,1.5052275657653809,-0.023928113281726837,0.0002688216045498848,0.0,0.07971881330013275,1.7244669198989868,0.7071258840673567,4.905332088470459,2.728309154510498,4.985051155090332,3.1865034103393555,6.664844751358032,4.202107191085815,,,,,,
8787428000.0,83.09,5.800000190734863,6391222784.0,2443.2821171470964,39.0,0.06591796875,655360.0,1154.3039371967316,0.0013572036987170577,0.003173828125,2.4357094764709473,-0.023540673777461052,1.3733725547790527,-0.02435709349811077,0.00081641785800457,0.0,0.06262076646089554,1.6354120969772339,0.7076566004214615,4.939902305603027,2.581876754760742,5.0025224685668945,3.0246875286102295,6.705734014511108,4.199085235595703,,,,,,
8787428000.0,80.17,5.900000095367432,6391222784.0,2441.480643373419,40.0,0.0701904296875,671744.0,1161.0146191120148,0.002568415831774473,0.01385498046875,2.3789334297180176,-0.0245917160063982,1.3583104610443115,-0.023789335042238235,-0.000802377238869667,0.0,0.0187821127474308,1.6398518085479736,0.7156445633985604,5.292448997497559,2.6467974185943604,5.3112311363220215,3.075202703475952,6.710681915283203,4.207745552062988,,,,,,
8787428000.0,71.25,5.699999809265137,6391222784.0,2447.140516113414,41.0,0.076904296875,688128.0,1167.709780216217,0.0025331410579383373,0.0179443359375,2.3394570350646973,-0.02372989058494568,1.594938039779663,-0.023394571617245674,-0.0003353208303451538,0.0,0.06768417358398438,1.773023247718811,0.6769439929003577,5.416482925415039,2.702451229095459,5.484167098999023,3.119431495666504,6.6951611042022705,4.193297624588013,,,,,,
8787428000.0,71.72,5.400000095367432,6391222784.0,2429.6020533263527,42.0,0.0732421875,704512.0,1174.4532713890076,0.0013382954057306051,0.00299072265625,2.3633534908294678,-0.022258926182985306,1.551773190498352,-0.02363353595137596,0.0013746097683906555,0.0,-0.13358771800994873,1.7621872425079346,0.6683677503255796,5.635919570922852,2.541928768157959,5.502331733703613,3.060015916824341,6.743491172790527,4.191943883895874,,,,,,
8787428000.0,75.09,5.400000095367432,6391222784.0,2408.480858967827,43.0,0.0750732421875,720896.0,1181.2558996677399,0.001491638831794262,0.01129150390625,2.355477809906006,-0.02318759262561798,1.440613031387329,-0.023554779589176178,0.00036718789488077164,0.0,0.043904952704906464,1.6948975324630737,0.672338457605743,5.52889347076416,2.5068202018737793,5.572798728942871,2.9609479904174805,6.8026282787323,4.2057976722717285,,,,,,
8787428000.0,71.35,4.5,6391222784.0,2398.6728988423556,44.0,0.0714111328125,737280.0,1188.0863432884216,0.0026786515954881907,0.01776123046875,2.34446120262146,-0.022225476801395416,1.3852801322937012,-0.023444611579179764,0.0012191333808004856,0.0,-0.1069348156452179,1.656864881515503,0.6895365358584471,5.314199924468994,2.357679605484009,5.2072649002075195,2.9735944271087646,6.830443620681763,4.20897364616394,,,,,,
8787428000.0,66.9,5.699999809265137,6391222784.0,2429.590199258319,45.0,0.08056640625,753664.0,1194.829867362976,0.001726329093798995,0.00933837890625,2.2238283157348633,-0.022592540830373764,1.5413888692855835,-0.02223828248679638,-0.00035425741225481033,0.0,-0.00736080389469862,1.7610735893249512,0.6821076594550963,5.4221696853637695,2.6142683029174805,5.414808750152588,3.123471260070801,6.743524074554443,4.191364049911499,,,,,,
8787428000.0,68.82,6.400000095367432,6391222784.0,2452.0655093271794,46.0,0.08056640625,770048.0,1201.5115811824799,0.004995818715542555,0.04986572265625,2.14727520942688,-0.021398156881332397,1.507891297340393,-0.0214727520942688,7.45970755815506e-05,0.0,-0.05212675780057907,1.730305790901184,0.6872694664299022,5.6613030433654785,2.641509771347046,5.6091766357421875,3.0941240787506104,6.681713819503784,4.195467472076416,,,,,,
8787428000.0,76.24,6.699999809265137,6391222784.0,2449.384440836953,47.0,0.0799560546875,786432.0,1208.2006087303162,0.0018652371363714337,0.01165771484375,2.282331943511963,-0.021729910746216774,1.5401674509048462,-0.02282331883907318,0.0010934080928564072,0.0,0.041387710720300674,1.741963505744934,0.6631525175646007,5.56857967376709,2.5341148376464844,5.60996675491333,3.001389265060425,6.689027547836304,4.206010103225708,,,,,,
8787428000.0,72.48,6.199999809265137,6391222784.0,2437.594057049358,48.0,0.091552734375,802816.0,1214.9219903945923,0.0009557591984048486,0.0018310546875,2.159790515899658,-0.022123677656054497,1.4029734134674072,-0.021597905084490776,-0.0005257725715637207,0.0,0.02938273921608925,1.657741904258728,0.7027866435312391,5.779571533203125,2.492581844329834,5.808954238891602,3.0407633781433105,6.721381664276123,4.211984395980835,,,,,,
8787428000.0,65.35,4.900000095367432,6391222784.0,2416.2566342871046,49.0,0.0848388671875,819200.0,1221.7027270793915,0.003913174849003553,0.03131103515625,2.0565738677978516,-0.020029157400131226,1.508354663848877,-0.020565737038850784,0.000536581501364708,0.0,-0.03797374665737152,1.7204785346984863,0.6949507608531301,5.459290504455566,2.4511773586273193,5.421317100524902,3.115044355392456,6.780736684799194,4.222094535827637,,,,,,
8787428000.0,66.22,5.199999809265137,6391222784.0,2426.5824075885093,50.0,0.0860595703125,835584.0,1228.4546098709106,0.0041678715497255325,0.04058837890625,2.2078943252563477,-0.020033925771713257,1.5743314027786255,-0.022078942507505417,0.0020450158044695854,0.0,-0.017344586551189423,1.7291902303695679,0.722470382409029,5.494294166564941,2.7978248596191406,5.476949214935303,3.282374858856201,6.751882791519165,4.198058843612671,,,,,,
8787428000.0,58.85,5.699999809265137,6391222784.0,2432.575834447653,51.0,0.087890625,851968.0,1235.1898572444916,0.006447875872254372,0.08392333984375,1.9728100299835205,-0.01974845677614212,1.6316635608673096,-0.019728099927306175,-2.0357780158519745e-05,0.0,0.013710858300328255,1.7919048070907593,0.6876239358843312,5.3780622482299805,2.6959407329559326,5.391773223876953,3.206092357635498,6.735247373580933,4.195570468902588,,,,,,
8787428000.0,65.64,5.300000190734863,6391222784.0,2446.194410004527,52.0,0.0830078125,868352.0,1241.8876078128815,0.001196755561977625,0.00238037109375,2.1213173866271973,-0.02084144577383995,1.5505688190460205,-0.021213170140981674,0.00037172436714172363,0.0,0.0013891481794416904,1.7585206031799316,0.6910600659905137,5.492475986480713,2.668576717376709,5.493865489959717,3.1638107299804688,6.697750568389893,4.196382761001587,,,,,,
8787428000.0,59.12,6.0,6391222784.0,2460.912104195067,53.0,0.08544921875,884736.0,1248.545301914215,0.0008696829900145531,0.0013427734375,2.0855722427368164,-0.02041757106781006,1.5476055145263672,-0.020855721086263657,0.0004381481558084488,0.0,-0.03471750020980835,1.7588956356048584,0.6889325327287512,5.493078708648682,2.6266300678253174,5.4583611488342285,3.1536448001861572,6.657694101333618,4.193602085113525,,,,,,
8787428000.0,68.01,5.199999809265137,6391222784.0,2430.8524477954365,54.0,0.0909423828125,901120.0,1255.2853243350983,0.0018313940381631255,0.0087890625,2.0179507732391357,-0.020780017599463463,1.554896593093872,-0.02017950639128685,-0.0006005112081766129,0.0,0.07148601114749908,1.7488702535629272,0.694660510215342,5.593092441558838,2.6764981746673584,5.664578437805176,3.1649444103240967,6.740022420883179,4.191413164138794,,,,,,
8787428000.0,62.95,6.199999809265137,6391222784.0,2387.806525043736,55.0,0.0848388671875,917504.0,1262.1468517780304,0.00408099964261055,0.02655029296875,2.105138063430786,-0.020186662673950195,1.395883321762085,-0.021051378920674324,0.000864718109369278,0.0,0.05546703189611435,1.669290542602539,0.7024500258746794,5.390079498291016,2.492469072341919,5.4455461502075195,3.0602152347564697,6.861527442932129,4.193310260772705,,,,,,
8787428000.0,62.96,6.300000190734863,6391222784.0,2442.082690786231,56.0,0.0933837890625,933888.0,1268.8558793067932,0.0014045988209545612,0.00726318359375,2.0957961082458496,-0.020282451063394547,1.6084589958190918,-0.020957957953214645,0.0006755094509571791,0.0,0.04237796738743782,1.7819559574127197,0.6954065269993484,5.76365852355957,2.7133569717407227,5.806035995483398,3.228766441345215,6.709027528762817,4.210662841796875,,,,,,
8787428000.0,74.33,6.099999904632568,6391222784.0,2445.7915723402643,57.0,0.08544921875,950272.0,1275.5547330379486,0.0019717286340892315,0.01055908203125,2.1856274604797363,-0.021685393527150154,1.507390022277832,-0.02185627445578575,0.0001708799973130226,0.0,0.09509025514125824,1.726523995399475,0.6799019742981521,5.341434955596924,2.5891165733337402,5.436525344848633,3.0516247749328613,6.6988537311553955,4.205878257751465,,,,,,
8787428000.0,62.24,6.599999904632568,6391222784.0,2455.4570460040813,58.0,0.0811767578125,966656.0,1282.227217912674,0.001153025310486555,0.0030517578125,2.1523375511169434,-0.02132759988307953,1.5345735549926758,-0.021523375064134598,0.00019577424973249435,0.0,-0.15000778436660767,1.7354832887649536,0.69571821292014,5.694441318511963,2.592085838317871,5.54443359375,3.146171808242798,6.672484874725342,4.193006277084351,,,,,,
8787428000.0,62.88,5.199999809265137,6391222784.0,2424.5192146022086,59.0,0.086669921875,983040.0,1288.9848463535309,0.003565124236047268,0.0377197265625,2.231987953186035,-0.021471288055181503,1.4645195007324219,-0.02231987938284874,0.0008485891157761216,0.0,-0.11095781624317169,1.6970958709716797,0.7101451652172674,5.63556432723999,2.5972647666931152,5.524606704711914,3.152217388153076,6.757628440856934,4.20398473739624,,,,,,
8787428000.0,68.87,5.5,6391222784.0,2394.97138388195,60.0,0.072021484375,999424.0,1295.825846672058,0.004011422861367464,0.03875732421875,2.2171342372894287,-0.022302012890577316,1.4530104398727417,-0.022171340882778168,-0.00013066735118627548,0.0,-0.10102566331624985,1.6943659782409668,0.6984309505566516,5.4046525955200195,2.5694844722747803,5.303627014160156,3.0854175090789795,6.841000318527222,4.193333387374878,,,,,,
8787428000.0,62.44,5.099999904632568,6391222784.0,2390.749341625688,61.0,0.0750732421875,1015808.0,1302.6789281368256,0.003962352871894836,0.031982421875,2.3431191444396973,-0.02164302207529545,1.4466904401779175,-0.023431191220879555,0.0017881658859550953,0.0,-0.06820288300514221,1.67597234249115,0.7187637504999096,5.282108306884766,2.623868703842163,5.213905334472656,3.16032075881958,6.853081464767456,4.210352897644043,,,,,,
8787428000.0,71.64,5.400000095367432,6391222784.0,2388.760806504904,62.0,0.0714111328125,1032192.0,1309.5377144813538,0.0037527065724134445,0.0296630859375,2.220468521118164,-0.02165725827217102,1.3712433576583862,-0.02220468781888485,0.0005474276840686798,0.0,0.02559022791683674,1.6408145427703857,0.7276843326938427,4.905206680297852,2.6620593070983887,4.9307966232299805,3.144294261932373,6.858786344528198,4.195747375488281,,,,,,
8788412000.0,74.33,5.400000095367432,6391222784.0,2410.7901479602147,63.0,0.0714111328125,1048576.0,1316.3338265419006,0.0020155839156359434,0.0123291015625,2.343852996826172,-0.022221069782972336,1.2518397569656372,-0.023438531905412674,0.0012174593284726143,0.0,0.009978726506233215,1.5767890214920044,0.7519621885045996,4.95041036605835,2.6739985942840576,4.960389137268066,3.166027784347534,6.796112060546875,4.198266506195068,,,,,,
,,,,,,,,,,,,,,,,,,,,,,,,,,0.01426756102591753,1.8376816511154175,1.3998178243637085,0.01426756102591753,1.8376816511154175,1.3998178243637085
,,,,,,,,,,,,,,,,,,,,,,,,,,0.005999158602207899,1.3869603872299194,1.294020652770996,0.005999158602207899,1.3869603872299194,1.294020652770996
,,,,,,,,,,,,,,,,,,,,,,,,,,0.006002221256494522,1.2963584661483765,1.2413469552993774,0.006002221256494522,1.2963584661483765,1.2413469552993774
,,,,,,,,,,,,,,,,,,,,,,,,,,0.005438055377453566,1.2360291481018066,1.1945016384124756,0.005438055377453566,1.2360291481018066,1.1945016384124756
,,,,,,,,,,,,,,,,,,,,,,,,,,0.004987239371985197,1.1988606452941895,1.1641640663146973,0.004987239371985197,1.1988606452941895,1.1641640663146973
,,,,,,,,,,,,,,,,,,,,,,,,,,0.004742222372442484,1.173012375831604,1.1413804292678833,0.004742222372442484,1.173012375831604,1.1413804292678833
8789024000.0,65.2,5.599999904632568,6188634112.0,18.4239595782048,64.0,0.0775146484375,1064960.0,2205.610636472702,0.00794237945228815,0.10498046875,2.2818264961242676,-0.021076688542962074,1.2917118072509766,-0.02281826362013817,0.0017415762413293123,0.0,0.023328667506575584,1.6135034561157227,0.7496025812343655,5.269730567932129,2.722893714904785,5.2930588722229,3.224444627761841,889.2768099308014,4.391703844070435,,,,,,
8789024000.0,72.1,4.900000095367432,6391222784.0,2436.543694471546,65.0,0.0689697265625,1081344.0,2212.33491563797,0.00636548176407814,0.08477783203125,2.2971954345703125,-0.02147395722568035,1.1539298295974731,-0.022971954196691513,0.0014979962725192308,0.0,-0.05875510349869728,1.5090452432632446,0.7833411653713552,5.16526460647583,2.7489588260650635,5.106509208679199,3.2420077323913574,6.724279165267944,4.20882511138916,,,,,,
8789024000.0,66.37,5.0,6391222784.0,2424.45446222795,66.0,0.0750732421875,1097728.0,2219.0927245616913,0.008432691916823387,0.12335205078125,2.304615020751953,-0.019588975235819817,1.2645738124847412,-0.02304615080356598,0.0034571741707623005,0.0,-0.014808488078415394,1.5886290073394775,0.7683603423495329,5.24210262298584,2.8837242126464844,5.227293968200684,3.3007752895355225,6.7578089237213135,4.224057197570801,,,,,,
8789024000.0,66.15,4.400000095367432,6391222784.0,2397.557512808208,67.0,0.07080078125,1114112.0,2225.9263458251953,0.009909314103424549,0.12933349609375,2.3112375736236572,-0.02177375927567482,1.2298250198364258,-0.023112379014492035,0.0013386141508817673,0.0,-0.14064529538154602,1.5642504692077637,0.7869397025537834,5.180524826049805,2.9400556087493896,5.03987979888916,3.388871431350708,6.833621263504028,4.25300669670105,,,,,,
8789024000.0,73.2,4.800000190734863,6391222784.0,2429.888905496085,68.0,0.0640869140625,1130496.0,2232.66904091835,0.005358044523745775,0.0731201171875,2.397176742553711,-0.024702297523617744,1.1090874671936035,-0.023971766233444214,-0.0007305294275283813,0.0,-0.12954731285572052,1.4766061305999756,0.8097861953329257,4.864105701446533,2.9819674491882324,4.73455810546875,3.3856632709503174,6.742695093154907,4.202674865722656,,,,,,
8789024000.0,79.4,5.300000190734863,6391222784.0,2440.3826435482924,69.0,0.064697265625,1146880.0,2239.382742166519,0.0015771447215229273,0.0091552734375,2.407320737838745,-0.02352488599717617,1.096942663192749,-0.024073205888271332,0.0005483203567564487,0.0,0.03959214687347412,1.4844821691513062,0.8139403641550752,5.037807464599609,3.144841194152832,5.077399253845215,3.4415090084075928,6.713701248168945,4.201569080352783,,,,,,
8789024000.0,78.4,5.599999904632568,6391222784.0,2466.757718287734,70.0,0.0738525390625,1163264.0,2246.0246591567993,0.0028157844208180904,0.0269775390625,2.3578014373779297,-0.02397913858294487,1.122074007987976,-0.023578012362122536,-0.000401125755161047,0.0,-0.018909983336925507,1.495293378829956,0.803669070375884,5.314749717712402,3.0818991661071777,5.295839309692383,3.3746755123138428,6.641916990280151,4.1838059425354,,,,,,
8789024000.0,85.91,5.300000190734863,6391222784.0,2446.6722933437154,71.0,0.0567626953125,1179648.0,2252.7211015224457,0.003942049108445644,0.03515625,2.4203085899353027,-0.022793540731072426,1.1241291761398315,-0.02420308254659176,0.0014095418155193329,0.0,-0.07351547479629517,1.4914826154708862,0.785530694799063,4.891384124755859,2.892068386077881,4.817868709564209,3.2205915451049805,6.696442365646362,4.185229778289795,,,,,,
8789024000.0,85.93,4.699999809265137,6391222784.0,2450.3412295871685,72.0,0.0640869140625,1196032.0,2259.407517194748,0.0021642877254635096,0.0164794921875,2.3709118366241455,-0.023470858111977577,1.1841859817504883,-0.023709118366241455,0.00023826025426387787,0.0,-0.021248694509267807,1.529953122138977,0.7741709463565456,4.926750183105469,2.836442470550537,4.905501365661621,3.2194979190826416,6.686415672302246,4.205591917037964,,,,,,
8789024000.0,74.02,5.300000190734863,6391222784.0,2446.761149537873,73.0,0.0738525390625,1212416.0,2266.1037163734436,0.0038206896279007196,0.0377197265625,2.2945284843444824,-0.02326289564371109,1.1967945098876953,-0.022945282980799675,-0.0003176117315888405,0.0,0.09580539166927338,1.5353626012802124,0.7826089643320624,5.250112533569336,2.928341865539551,5.345917701721191,3.292987823486328,6.696199178695679,4.19460391998291,,,,,,
8789024000.0,73.25,5.800000190734863,6391222784.0,2435.2794999218945,74.0,0.07080078125,1228800.0,2272.831486225128,0.0027031325735151768,0.0238037109375,2.3322863578796387,-0.021839572116732597,1.2947407960891724,-0.02332286350429058,0.0014832960441708565,0.0,0.031634386628866196,1.6055163145065308,0.7570465787130034,5.225788116455078,2.8876776695251465,5.25742244720459,3.257265329360962,6.72776985168457,4.2042317390441895,,,,,,
8789024000.0,74.74,5.099999904632568,6391222784.0,2439.4039990840097,75.0,0.076904296875,1245184.0,2279.5478808879852,0.0025452529080212116,0.01446533203125,2.2542152404785156,-0.02203976921737194,1.1367979049682617,-0.022542152553796768,0.0005023796111345291,0.0,0.004108253866434097,1.4993929862976074,0.7936606987332356,5.238893508911133,2.8818962574005127,5.243001937866211,3.3008408546447754,6.716394662857056,4.203462600708008,,,,,,
8789024000.0,77.43,5.300000190734863,6391222784.0,2442.307048668385,76.0,0.0750732421875,1261568.0,2286.256292104721,0.002697027986869216,0.017578125,2.3357274532318115,-0.022945795208215714,1.132995367050171,-0.023357275873422623,0.00041147880256175995,0.0,0.041717201471328735,1.4956802129745483,0.7993909213857879,5.176060199737549,2.9618031978607178,5.217777252197266,3.3393614292144775,6.70841121673584,4.203316926956177,,,,,,
8789024000.0,74.08,5.099999904632568,6391222784.0,2453.0792978556774,77.0,0.074462890625,1277952.0,2292.9352445602417,0.00250690127722919,0.022216796875,2.277714252471924,-0.02293766289949417,1.1932249069213867,-0.022777142003178596,-0.0001605236902832985,0.0,0.07042437046766281,1.5257294178009033,0.790364968031936,5.176518440246582,2.960643768310547,5.24694299697876,3.3323123455047607,6.67895245552063,4.198624134063721,,,,,,
8789024000.0,67.54,5.400000095367432,6391222784.0,2449.2185744990284,78.0,0.078125,1294336.0,2299.6247251033783,0.0025295778177678585,0.01416015625,2.2506728172302246,-0.022543644532561302,1.2074689865112305,-0.022506730630993843,-3.69194895029068e-05,0.0,-0.025028321892023087,1.5480135679244995,0.7973266295710923,5.243206977844238,3.0570485591888428,5.218178749084473,3.438558578491211,6.689480543136597,4.195758819580078,,,,,,
8789024000.0,63.35,6.0,6391222784.0,2451.8940307022144,79.0,0.087890625,1310720.0,2306.306906223297,0.005209804512560368,0.0579833984375,2.2580678462982178,-0.02198329195380211,1.2339298725128174,-0.022580677643418312,0.0005973866209387779,0.0,0.12840095162391663,1.5738157033920288,0.7812068772332593,5.138625621795654,2.9321157932281494,5.267026901245117,3.364628314971924,6.682181119918823,4.201646089553833,,,,,,
8789024000.0,68.63,5.800000190734863,6391222784.0,2410.340211518785,80.0,0.0787353515625,1327104.0,2313.1042869091034,0.0026498117949813604,0.01470947265625,2.2450032234191895,-0.021914426237344742,1.3639116287231445,-0.022450031712651253,0.0005356073379516602,0.0,0.012464145198464394,1.6333893537521362,0.7526138871251677,5.378818511962891,2.9100048542022705,5.39128303527832,3.2839925289154053,6.797380685806274,4.182100296020508,,,,,,
8789024000.0,75.54,6.300000190734863,6391222784.0,2458.436182846653,81.0,0.0848388671875,1343488.0,2319.768686056137,0.002718627220019698,0.02142333984375,2.274005174636841,-0.022029824554920197,1.252030849456787,-0.02274005115032196,0.0007102289237082005,0.0,0.08208368718624115,1.5810024738311768,0.7596170555874137,5.675989627838135,2.811798334121704,5.758072853088379,3.2246358394622803,6.664399147033691,4.187869071960449,,,,,,
8789024000.0,81.85,5.300000190734863,6391222784.0,2438.913716027079,82.0,0.0714111328125,1359872.0,2326.4864308834076,0.004585168790072203,0.04437255859375,2.342543601989746,-0.02275700494647026,1.087538480758667,-0.023425433784723282,0.0006684288382530212,0.0,-0.018497880548238754,1.4772319793701172,0.7845693877466359,5.420692443847656,2.852907419204712,5.402194499969482,3.182694911956787,6.717744827270508,4.207123279571533,,,,,,
8789024000.0,77.59,5.599999904632568,6391222784.0,2437.5906848990285,83.0,0.0701904296875,1376256.0,2333.2078218460083,0.004207191057503223,0.03436279296875,2.2746927738189697,-0.023275071755051613,1.1142449378967285,-0.022746926173567772,-0.0005281455814838409,0.0,-0.04041208326816559,1.474308967590332,0.7957049696785419,5.287458419799805,2.8383777141571045,5.24704647064209,3.261817455291748,6.721390962600708,4.195946931838989,,,,,,
8789024000.0,72.08,6.099999904632568,6391222784.0,2414.216298775173,84.0,0.078125,1392640.0,2339.994289159775,0.0020256119314581156,0.01800537109375,2.345264434814453,-0.023102452978491783,1.1159621477127075,-0.023452645167708397,0.00035019218921661377,0.0,-0.0013443725183606148,1.4870656728744507,0.8068379539941865,5.725667953491211,2.995607614517212,5.7243242263793945,3.3835248947143555,6.7864673137664795,4.198935508728027,,,,,,
8789024000.0,83.18,5.599999904632568,6391222784.0,2444.875125806896,85.0,0.0714111328125,1409024.0,2346.6956539154053,0.0024792631156742573,0.01995849609375,2.3054261207580566,-0.02268979698419571,1.035812258720398,-0.02305426076054573,0.0003644675016403198,0.0,0.02972370758652687,1.4323245286941528,0.7991448291166776,5.244992256164551,2.851102352142334,5.274715423583984,3.195949077606201,6.701364755630493,4.184383392333984,,,,,,
8789024000.0,77.33,5.5,6391222784.0,2435.7375012077764,86.0,0.072021484375,1425408.0,2353.422158718109,0.002295766957104206,0.01239013671875,2.265787363052368,-0.02213725447654724,1.153822422027588,-0.02265787310898304,0.0005206204950809479,0.0,-0.08182060718536377,1.4843889474868774,0.8021316653821786,5.42128849029541,2.9802350997924805,5.339468002319336,3.3370258808135986,6.726504802703857,4.193057537078857,,,,,,
8789024000.0,80.78,6.400000095367432,6391222784.0,2458.5798143121274,87.0,0.0732421875,1441792.0,2360.086168527603,0.0024282594677060843,0.01495361328125,2.3094372749328613,-0.021659012883901596,1.189512014389038,-0.02309437096118927,0.0014353571459650993,0.0,0.08431773632764816,1.5455477237701416,0.7665074122677028,5.12202262878418,2.8179423809051514,5.206340789794922,3.1984963417053223,6.6640098094940186,4.194488763809204,,,,,,
8789024000.0,72.59,6.099999904632568,6391222784.0,2444.0458519581216,88.0,0.0848388671875,1458176.0,2366.7898070812225,0.002815471962094307,0.0169677734375,2.3129615783691406,-0.02304963581264019,1.194828987121582,-0.02312961407005787,7.997406646609306e-05,0.0,0.14754971861839294,1.5203498601913452,0.7909146227262888,5.23597526550293,2.939332962036133,5.383524417877197,3.324923276901245,6.703638553619385,4.193314790725708,,,,,,
8789024000.0,71.2,4.699999809265137,6391222784.0,2445.2924536533133,89.0,0.08056640625,1474560.0,2373.490028142929,0.005753270350396633,0.06280517578125,2.205244779586792,-0.021634507924318314,1.2551138401031494,-0.022052446380257607,0.0004179440438747406,0.0,-0.003038330003619194,1.5794541835784912,0.7676929650583744,5.406600475311279,2.897383689880371,5.403561592102051,3.276993989944458,6.700221061706543,4.19392991065979,,,,,,
8789024000.0,79.12,5.5,6391222784.0,2371.7450376758984,90.0,0.0689697265625,1490944.0,2380.3980219364166,0.0025919729378074408,0.02056884765625,2.376768112182617,-0.02292484976351261,1.0988308191299438,-0.023767678067088127,0.0008428273722529411,0.0,0.03888174146413803,1.4773311614990234,0.797444523133527,5.268208026885986,2.929385185241699,5.307089805603027,3.282508611679077,6.907993793487549,4.203356981277466,,,,,,
8789024000.0,80.96,5.5,6391222784.0,2418.8436655151613,91.0,0.07080078125,1507328.0,2387.1715064048767,0.00414102291688323,0.03277587890625,2.22403621673584,-0.022450841963291168,1.202765703201294,-0.02224036306142807,-0.00021047703921794891,0.0,-0.0576767697930336,1.5461078882217407,0.7663290480100194,5.691252708435059,2.87341570854187,5.633576393127441,3.198434829711914,6.773484468460083,4.186618089675903,,,,,,
8789024000.0,72.26,5.0,6391222784.0,2411.8749643893007,92.0,0.0750732421875,1523712.0,2393.964561700821,0.0037915471475571394,0.02490234375,2.3369040489196777,-0.02210133709013462,1.2600986957550049,-0.023369044065475464,0.0012677060440182686,0.0,-0.09168695658445358,1.5570542812347412,0.7634431961163592,5.584292411804199,2.8062515258789062,5.492605686187744,3.201371192932129,6.793055295944214,4.197105407714844,,,,,,
8789024000.0,82.77,5.400000095367432,6391222784.0,2432.4878333444303,93.0,0.074462890625,1540096.0,2400.7000527381897,0.004744776524603367,0.0546875,2.271210193634033,-0.021605368703603745,1.0526000261306763,-0.02271210215985775,0.00110673438757658,0.0,0.13072878122329712,1.4584081172943115,0.7909527448850959,5.0632829666137695,2.802875280380249,5.194011688232422,3.1897518634796143,6.735491037368774,4.199895143508911,,,,,,
8789024000.0,76.34,5.400000095367432,6391222784.0,2416.153329301458,94.0,0.0738525390625,1556480.0,2407.481079339981,0.0049966927617788315,0.06024169921875,2.404224157333374,-0.021711785346269608,1.1451693773269653,-0.024042241275310516,0.002330454532057047,0.0,-0.06281311064958572,1.508807897567749,0.7792802499705805,5.540777206420898,2.8176374435424805,5.477964401245117,3.2115399837493896,6.781026601791382,4.197868347167969,,,,,,
8789164000.0,82.1,5.400000095367432,6391222784.0,2400.9607247770205,95.0,0.0628662109375,1572864.0,2414.305014371872,0.0038617115933448076,0.0408935546875,2.3866543769836426,-0.024989431723952293,1.0287957191467285,-0.023866545408964157,-0.001122884452342987,0.0,-0.0022145104594528675,1.4283149242401123,0.7938396035726192,5.003117561340332,2.769550323486328,5.000903606414795,3.1457297801971436,6.823935031890869,4.202411651611328,,,,,,
,,,,,,,,,,,,,,,,,,,,,,,,,,0.01212987769395113,1.4039732217788696,1.2265851497650146,0.01212987769395113,1.4039732217788696,1.2265851497650146
,,,,,,,,,,,,,,,,,,,,,,,,,,0.007528198417276144,1.2171458005905151,1.1601536273956299,0.007528198417276144,1.2171458005905151,1.1601536273956299
,,,,,,,,,,,,,,,,,,,,,,,,,,0.00685842102393508,1.1666851043701172,1.11013662815094,0.00685842102393508,1.1666851043701172,1.11013662815094
,,,,,,,,,,,,,,,,,,,,,,,,,,0.006704988423734903,1.1326974630355835,1.079527497291565,0.006704988423734903,1.1326974630355835,1.079527497291565
,,,,,,,,,,,,,,,,,,,,,,,,,,0.006533392705023289,1.1072804927825928,1.0560988187789917,0.006533392705023289,1.1072804927825928,1.0560988187789917
,,,,,,,,,,,,,,,,,,,,,,,,,,0.0065635801292955875,1.0774949789047241,1.0219451189041138,0.0065635801292955875,1.0774949789047241,1.0219451189041138
8789216000.0,82.59,5.5,6188634112.0,18.431935464337286,96.0,0.0653076171875,1589248.0,3303.1970155239105,0.004399935714900494,0.0494384765625,2.384316921234131,-0.023348400369286537,0.9455920457839966,-0.02384316548705101,0.0004947669804096222,0.0,-0.055209506303071976,1.367019772529602,0.816377492498638,5.30896520614624,2.808048963546753,5.253756046295166,3.1901559829711914,888.8920011520386,4.208610534667969,,,,,,
8789216000.0,80.18,6.300000190734863,6391222784.0,2455.4409024257097,97.0,0.07568359375,1605632.0,3309.8695442676544,0.0067724185064435005,0.08782958984375,2.3670387268066406,-0.021900298073887825,1.0886660814285278,-0.023670384660363197,0.0017700882162898779,0.0,0.15790444612503052,1.4662113189697266,0.783729802998994,5.054939270019531,2.763636827468872,5.212843894958496,3.152813673019409,6.6725287437438965,4.198328971862793,,,,,,
8789216000.0,86.95,6.0,6391222784.0,2430.818053121349,98.0,0.0762939453125,1622016.0,3316.6096620559692,0.009735990315675735,0.1419677734375,2.37740421295166,-0.02094476856291294,0.9818414449691772,-0.0237740408629179,0.0028292760252952576,0.0,0.11768363416194916,1.3887609243392944,0.8253794452981037,5.312726020812988,3.0094478130340576,5.4304094314575195,3.323377847671509,6.740117788314819,4.189903736114502,,,,,,
8789216000.0,79.63,5.900000095367432,6391222784.0,2449.5462258058237,99.0,0.072021484375,1638400.0,3323.2982478141785,0.0058249784633517265,0.07318115234375,2.3251616954803467,-0.022496912628412247,1.022612452507019,-0.023251619189977646,0.0007547065615653992,0.0,0.0386028066277504,1.4256391525268555,0.7987772888435054,5.173757553100586,2.8164255619049072,5.212360382080078,3.1781258583068848,6.6885857582092285,4.210936069488525,,,,,,
8789216000.0,81.67,6.400000095367432,6391222784.0,2446.2051204888003,100.0,0.074462890625,1654784.0,3329.995969057083,0.003343982854858041,0.03363037109375,2.30224347114563,-0.02228088304400444,1.1151950359344482,-0.02302243374288082,0.0007415516301989555,0.0,0.02678348869085312,1.4779541492462158,0.7952949408915407,5.483076095581055,2.9350998401641846,5.509859085083008,3.2666056156158447,6.697721242904663,4.19991660118103,,,,,,
8789216000.0,67.85,5.300000190734863,6391222784.0,2448.401181711729,101.0,0.0762939453125,1671168.0,3336.68768286705,0.0034094289876520634,0.029541015625,2.2540485858917236,-0.023456018418073654,1.1730197668075562,-0.022540487349033356,-0.0009155329316854477,0.0,-0.11705051362514496,1.5281782150268555,0.7723386592912475,5.725915431976318,2.8691821098327637,5.608864784240723,3.2027974128723145,6.691713809967041,4.196966171264648,,,,,,
8789216000.0,80.45,5.900000095367432,6391222784.0,2430.8983662024166,102.0,0.0701904296875,1687552.0,3343.427577972412,0.002989239990711212,0.02911376953125,2.29227352142334,-0.02196996659040451,1.1808369159698486,-0.022922731935977936,0.0009527676738798618,0.0,-0.07149839401245117,1.5208739042282104,0.769609571489528,5.552992820739746,2.829241991043091,5.481493949890137,3.168552875518799,6.7398951053619385,4.191193580627441,,,,,,
8789216000.0,74.26,6.0,6391222784.0,2444.030988073557,103.0,0.0762939453125,1703936.0,3350.1312572956085,0.0022768015041947365,0.0201416015625,2.3260319232940674,-0.022788885980844498,1.1267845630645752,-0.023260321468114853,0.00047143641859292984,0.0,-0.02500324323773384,1.4920181035995483,0.7922585420494396,5.624034881591797,2.911766529083252,5.599031925201416,3.27350115776062,6.703679323196411,4.202023983001709,,,,,,
8789216000.0,79.46,5.900000095367432,6391222784.0,2434.5969609890776,104.0,0.0885009765625,1720320.0,3356.8609132766724,0.0037066047079861164,0.03814697265625,2.261167526245117,-0.021359965205192566,1.0438992977142334,-0.022611673921346664,0.0012517105787992477,0.0,0.09620601683855057,1.4366041421890259,0.808735806556026,5.582130432128906,2.9121387004852295,5.678336143493652,3.284886598587036,6.729655981063843,4.210719347000122,,,,,,
8789216000.0,70.93,6.099999904632568,6391222784.0,2436.4370062428147,105.0,0.0799560546875,1736704.0,3363.5854868888855,0.0025651478208601475,0.0189208984375,2.236142635345459,-0.02147454209625721,1.0503017902374268,-0.022361423820257187,0.0008868828881531954,0.0,-0.03390394151210785,1.4419416189193726,0.8062916718673793,5.548542022705078,2.89957857131958,5.514638900756836,3.276223659515381,6.724573612213135,4.209435939788818,,,,,,
8789216000.0,74.74,5.099999904632568,6391222784.0,2427.937346444248,106.0,0.0750732421875,1753088.0,3370.3336017131805,0.0030135922133922577,0.024658203125,2.2440309524536133,-0.022133104503154755,1.137929916381836,-0.022440306842327118,0.0003072037361562252,0.0,-0.026701072230935097,1.5039830207824707,0.7985941088199409,5.271606922149658,3.0053131580352783,5.244905471801758,3.3512492179870605,6.748114824295044,4.197404146194458,,,,,,
8789216000.0,86.18,6.0,6391222784.0,2443.9759671969837,107.0,0.0677490234375,1769472.0,3377.0374319553375,0.004455157555639744,0.04888916015625,2.2710328102111816,-0.02137094922363758,1.1095504760742188,-0.02271033078432083,0.001339378533884883,0.0,-0.024903131648898125,1.485255479812622,0.7827634591857418,5.102812767028809,2.8635809421539307,5.077909469604492,3.186652660369873,6.703830242156982,4.202643394470215,,,,,,
8789216000.0,76.35,6.599999904632568,6391222784.0,2454.908195701256,108.0,0.0799560546875,1785856.0,3383.7114086151123,0.002270457101985812,0.01837158203125,2.2107949256896973,-0.021189654245972633,1.2139849662780762,-0.02210794948041439,0.0009182915091514587,0.0,-0.0179892610758543,1.5503040552139282,0.7792997018610448,5.521571159362793,2.9285004138946533,5.503582000732422,3.300011157989502,6.67397665977478,4.203078269958496,,,,,,
8789216000.0,80.98,6.599999904632568,6391222784.0,2451.008148344474,109.0,0.074462890625,1802240.0,3390.3960049152374,0.002983755199238658,0.02752685546875,2.215958595275879,-0.02138211950659752,1.1613268852233887,-0.022159583866596222,0.0007774606347084045,0.0,0.04700065776705742,1.5180368423461914,0.7675465260781821,5.342752456665039,2.7749106884002686,5.389753341674805,3.148576259613037,6.684596300125122,4.197269439697266,,,,,,
8789216000.0,69.9,6.5,6391222784.0,2444.0873153285384,110.0,0.089111328125,1818624.0,3397.0995297431946,0.002842516638338566,0.02392578125,2.193366050720215,-0.020667124539613724,1.1074503660202026,-0.02193365804851055,0.0012665363028645515,0.0,0.08975471556186676,1.4822196960449219,0.7984794525644381,5.406717777252197,2.928544282913208,5.496472358703613,3.301815986633301,6.703524827957153,4.201810359954834,,,,,,
8789216000.0,71.95,5.5,6391222784.0,2401.948638872591,111.0,0.078125,1835008.0,3403.9206581115723,0.004490302409976721,0.05340576171875,2.1889243125915527,-0.021319415420293808,1.1700477600097656,-0.02188924141228199,0.0005698278546333313,0.0,0.03147247061133385,1.5131932497024536,0.7826181902431308,5.268946647644043,2.8802502155303955,5.300418853759766,3.2455079555511475,6.8211283683776855,4.200571060180664,,,,,,
8789216000.0,71.53,5.900000095367432,6391222784.0,2429.4853215650883,112.0,0.0738525390625,1851392.0,3410.664473295212,0.003165318164974451,0.0302734375,2.227893590927124,-0.021816862747073174,1.337537169456482,-0.022278936579823494,0.00046207383275032043,0.0,-0.07176658511161804,1.6286791563034058,0.7460073963182119,5.4356513023376465,2.8847076892852783,5.363884925842285,3.2316548824310303,6.743815183639526,4.186035633087158,,,,,,
8789216000.0,69.41,5.599999904632568,6391222784.0,2428.0794094012263,113.0,0.0732421875,1867776.0,3417.41219329834,0.005095120519399643,0.052490234375,2.212801694869995,-0.02140042372047901,1.2212934494018555,-0.022128017619252205,0.0007275920361280441,0.0,-0.03058311901986599,1.5624510049819946,0.7655426591151662,5.437443256378174,2.856888771057129,5.4068603515625,3.226818323135376,6.747720003128052,4.203457355499268,,,,,,
8789216000.0,81.11,5.5,6391222784.0,2457.9521109881134,114.0,0.074462890625,1884160.0,3424.0779049396515,0.002439841628074646,0.02130126953125,2.248884439468384,-0.02159200794994831,1.0945333242416382,-0.022488843649625778,0.0008968319743871689,0.0,0.0016880582552403212,1.4774737358093262,0.7782680290918527,5.456920623779297,2.76096248626709,5.458609104156494,3.1376585960388184,6.6657116413116455,4.1939451694488525,,,,,,
8789216000.0,72.21,5.199999809265137,6391222784.0,2446.4357234169433,115.0,0.0836181640625,1900544.0,3430.7749948501587,0.0023188479244709015,0.0185546875,2.205960750579834,-0.021089162677526474,1.1702684164047241,-0.02205960638821125,0.0009704441763460636,0.0,-0.0010840557515621185,1.526447057723999,0.7732330530403762,5.571077346801758,2.8008172512054443,5.569993019104004,3.2054710388183594,6.697089910507202,4.2018883228302,,,,,,
8789216000.0,73.2,6.099999904632568,6391222784.0,2435.833767257927,116.0,0.0775146484375,1916928.0,3437.501233816147,0.0037712291814386845,0.03814697265625,2.2070319652557373,-0.02138815075159073,1.1519169807434082,-0.022070318460464478,0.0006821714341640472,0.0,-0.010122191160917282,1.5070204734802246,0.7718434871124391,5.432669639587402,2.7391068935394287,5.422547340393066,3.155024528503418,6.726238965988159,4.195544958114624,,,,,,
8789216000.0,68.3,6.599999904632568,6391222784.0,2391.408511920107,117.0,0.0836181640625,1933312.0,3444.352426290512,0.0030188020318746567,0.0230712890625,2.214146137237549,-0.02066614106297493,1.0271662473678589,-0.022141462191939354,0.0014753211289644241,0.0,0.05376351624727249,1.4322162866592407,0.8071879213756314,5.61307954788208,2.903296709060669,5.666842937469482,3.261681079864502,6.851192474365234,4.208785772323608,,,,,,
8789216000.0,75.84,5.199999809265137,6391222784.0,2401.8627557761274,118.0,0.07080078125,1949696.0,3451.173798561096,0.004155408125370741,0.03759765625,2.1414318084716797,-0.020771104842424393,1.130418300628662,-0.021414317190647125,0.0006432123482227325,0.0,-0.09831357002258301,1.4863536357879639,0.7934312064424188,5.088308334350586,2.8803701400756836,4.989995002746582,3.2703161239624023,6.8213722705841064,4.201849699020386,,,,,,
8789216000.0,67.01,5.900000095367432,6391222784.0,2420.059229780704,119.0,0.0823974609375,1966080.0,3457.9438807964325,0.004799668211489916,0.04833984375,2.196737766265869,-0.020115811377763748,1.2462096214294434,-0.02196737565100193,0.001851564273238182,0.0,0.08164896070957184,1.5763784646987915,0.7766991550804453,5.372036933898926,2.963341236114502,5.453686237335205,3.3359179496765137,6.770082235336304,4.197559833526611,,,,,,
8789216000.0,75.11,6.900000095367432,6391222784.0,2429.1211115561864,120.0,0.09033203125,1982464.0,3464.688707113266,0.005490131676197052,0.05743408203125,2.1502299308776855,-0.021471982821822166,1.1556106805801392,-0.02150229923427105,3.0314549803733826e-05,0.0,0.09786847233772278,1.5180089473724365,0.7947746997095446,5.817586898803711,3.0353643894195557,5.915455341339111,3.3508801460266113,6.744826316833496,4.213590860366821,,,,,,
8789216000.0,80.27,6.300000190734863,6391222784.0,2438.981580296059,121.0,0.0775146484375,1998848.0,3471.4062650203705,0.002360947895795107,0.01898193359375,2.289822816848755,-0.021955396980047226,1.0485376119613647,-0.022898228839039803,0.000942830927670002,0.0,0.050911396741867065,1.4330700635910034,0.8058615553187346,5.698066711425781,2.977487564086914,5.748978137969971,3.252457857131958,6.717557907104492,4.19957423210144,,,,,,
8789216000.0,78.53,6.300000190734863,6391222784.0,2413.446000631041,122.0,0.0799560546875,2015232.0,3478.194898366928,0.0024394351057708263,0.0167236328125,2.2251341342926025,-0.02274825982749462,1.0686677694320679,-0.022251343354582787,-0.0004969220608472824,0.0,-0.01922905072569847,1.4513623714447021,0.7919963435159418,5.460052490234375,2.7895729541778564,5.440823554992676,3.1822948455810547,6.788633346557617,4.208205223083496,,,,,,
8789216000.0,76.39,6.300000190734863,6391222784.0,2407.544751121845,123.0,0.0750732421875,2031616.0,3485.000171661377,0.003745472291484475,0.03692626953125,2.299978256225586,-0.021652519702911377,0.9970978498458862,-0.022999782115221024,0.001347261480987072,0.0,0.13293394446372986,1.3807317018508911,0.8113032001401286,5.033720970153809,2.799013614654541,5.166654586791992,3.178534507751465,6.8052732944488525,4.19204306602478,,,,,,
8789216000.0,84.29,6.0,6391222784.0,2384.6585866424857,124.0,0.0701904296875,2048000.0,3491.8707568645477,0.002403990365564823,0.01483154296875,2.259648323059082,-0.022419659420847893,1.176674246788025,-0.022596480324864388,0.00017682183533906937,0.0,-0.05779997259378433,1.52581787109375,0.771028507549881,5.384654998779297,2.880216121673584,5.326855182647705,3.188687801361084,6.870585203170776,4.220952749252319,,,,,,
8789216000.0,91.07,5.300000190734863,6391222784.0,2407.161034099314,125.0,0.0677490234375,2064384.0,3498.6771149635315,0.0031994255259633064,0.03155517578125,2.2616777420043945,-0.022267743945121765,1.002396821975708,-0.022616777569055557,0.0003490373492240906,0.0,-0.056309476494789124,1.4061963558197021,0.8057279182753583,5.358491897583008,2.8220150470733643,5.302182197570801,3.1903669834136963,6.806358098983765,4.203155755996704,,,,,,
8789216000.0,79.36,6.599999904632568,6391222784.0,2407.6055667403716,126.0,0.0775146484375,2080768.0,3505.482216358185,0.00392101239413023,0.04461669921875,2.3166615962982178,-0.022242840379476547,1.1088273525238037,-0.023166613653302193,0.000923774903640151,0.0,0.03745328634977341,1.479516863822937,0.7888552693590625,5.662899017333984,2.978044271469116,5.700352668762207,3.219806432723999,6.80510139465332,4.194854736328125,,,,,,
8789236000.0,82.86,6.900000095367432,6391222784.0,2416.6608489591645,127.0,0.0836181640625,2097152.0,3512.261818885803,0.0034379390999674797,0.03094482421875,2.2389907836914062,-0.02187340147793293,1.0604497194290161,-0.022389903664588928,0.0005165021866559982,0.0,0.16984021663665771,1.4434967041015625,0.7879011938572972,5.610130310058594,2.804051637649536,5.779970169067383,3.1343448162078857,6.779602527618408,4.18631911277771,,,,,,
,,,,,,,,,,,,,,,,,,,,,,,,,,0.013873143121600151,1.2962992191314697,1.157102346420288,0.013873143121600151,1.2962992191314697,1.157102346420288
,,,,,,,,,,,,,,,,,,,,,,,,,,0.010344704613089561,1.169053316116333,1.0981168746948242,0.010344704613089561,1.169053316116333,1.0981168746948242
,,,,,,,,,,,,,,,,,,,,,,,,,,0.00980642531067133,1.132770299911499,1.0635541677474976,0.00980642531067133,1.132770299911499,1.0635541677474976
,,,,,,,,,,,,,,,,,,,,,,,,,,0.009436224587261677,1.1017980575561523,1.035151720046997,0.009436224587261677,1.1017980575561523,1.035151720046997
,,,,,,,,,,,,,,,,,,,,,,,,,,0.00955264177173376,1.092332124710083,1.0194629430770874,0.00955264177173376,1.092332124710083,1.0194629430770874
,,,,,,,,,,,,,,,,,,,,,,,,,,0.009360100142657757,1.0687975883483887,0.9984803199768066,0.009360100142657757,1.0687975883483887,0.9984803199768066
8789236000.0,78.86,6.599999904632568,6188634112.0,18.422997851475778,128.0,0.0775146484375,2113536.0,4401.5850512981415,0.003122244728729129,0.02606201171875,2.3113138675689697,-0.022648198530077934,1.12907075881958,-0.02311314269900322,0.0004649423062801361,0.0,-0.005131615791469812,1.508381724357605,0.798569445473102,5.448606491088867,3.1139891147613525,5.443474769592285,3.3608458042144775,889.3232324123383,4.334480047225952,,,,,,
8789236000.0,78.95,5.800000190734863,6391222784.0,2433.8234309989157,129.0,0.0799560546875,2129920.0,4408.316846132278,0.0046345884911715984,0.05706787109375,2.2395377159118652,-0.02161320671439171,1.1240198612213135,-0.022395377978682518,0.0007821687031537294,0.0,0.13780580461025238,1.4955447912216187,0.7916567987975243,5.330568313598633,2.941934108734131,5.468374252319336,3.2764973640441895,6.731794834136963,4.202712774276733,,,,,,
8789236000.0,74.91,5.300000190734863,6391222784.0,2448.477077562159,130.0,0.07568359375,2146304.0,4415.008352518082,0.006475429981946945,0.08392333984375,2.298767328262329,-0.022627994418144226,1.1715357303619385,-0.022987674921751022,0.0003596784081310034,0.0,-0.0753026083111763,1.5215318202972412,0.776192766349368,5.450648307800293,2.880699872970581,5.3753461837768555,3.216207504272461,6.691506385803223,4.200313568115234,,,,,,
8789236000.0,69.82,6.300000190734863,6391222784.0,2419.397630746694,131.0,0.0872802734375,2162688.0,4421.780286073685,0.005247618071734905,0.058349609375,2.2146835327148438,-0.020269669592380524,1.0856629610061646,-0.022146834060549736,0.0018771644681692123,0.0,-0.016435327008366585,1.465885877609253,0.806859270999831,5.460563659667969,2.952374219894409,5.444128513336182,3.3355181217193604,6.771933555603027,4.207787752151489,,,,,,
8789236000.0,76.26,6.400000095367432,6391222784.0,2431.2316275924813,132.0,0.079345703125,2179072.0,4428.519257307053,0.0031788055785000324,0.03076171875,2.310213565826416,-0.02182820625603199,1.0408188104629517,-0.023102136328816414,0.0012739314697682858,0.0,0.04970284178853035,1.442330241203308,0.81198674435346,5.363803863525391,2.9234700202941895,5.413506507873535,3.326369047164917,6.73897123336792,4.206728458404541,,,,,,
8789236000.0,67.55,6.0,6391222784.0,2451.486777620595,133.0,0.0823974609375,2195456.0,4435.202548503876,0.004472141619771719,0.0455322265625,2.2826361656188965,-0.02171708643436432,1.2172359228134155,-0.022826358675956726,0.0011092768982052803,0.0,0.0023877834901213646,1.5527669191360474,0.7819737943769614,5.594956398010254,2.9642996788024902,5.597344398498535,3.3254623413085938,6.68329119682312,4.219699144363403,,,,,,
8789236000.0,81.23,5.800000190734863,6391222784.0,2445.037707522021,134.0,0.0836181640625,2211840.0,4441.903467655182,0.0021825656294822693,0.01641845703125,2.3044209480285645,-0.02226727083325386,1.031396746635437,-0.02304420806467533,0.000776936300098896,0.0,0.05073641240596771,1.422857403755188,0.8113430310062282,5.409014701843262,2.922339916229248,5.459751129150391,3.275857448577881,6.700919151306152,4.198428153991699,,,,,,
8789236000.0,70.27,6.5,6391222784.0,2425.963483605594,135.0,0.0830078125,2228224.0,4448.657073020935,0.002729956991970539,0.02691650390625,2.2710916996002197,-0.021660596132278442,1.1899245977401733,-0.02271091751754284,0.0010503227822482586,0.0,-0.07320515811443329,1.5373058319091797,0.7842715428354676,5.58826208114624,3.000365972518921,5.51505708694458,3.3098368644714355,6.753605365753174,4.2029900550842285,,,,,,
8789236000.0,86.48,6.199999809265137,6391222784.0,2438.5336939826275,136.0,0.0701904296875,2244608.0,4455.375864744186,0.0032775115687400103,0.03009033203125,2.3213729858398438,-0.023125924170017242,1.072228193283081,-0.02321372926235199,8.78041610121727e-05,0.0,0.03389154002070427,1.4574759006500244,0.7886941365559965,5.16635799407959,2.81333327293396,5.200249671936035,3.1706297397613525,6.718791723251343,4.205681562423706,,,,,,
8789236000.0,86.68,5.900000095367432,6391222784.0,2450.6162207708207,137.0,0.074462890625,2260992.0,4462.06153011322,0.0021720295771956444,0.0157470703125,2.3008904457092285,-0.0228708628565073,1.015809416770935,-0.023008903488516808,0.000138038769364357,0.0,0.02730347402393818,1.4218131303787231,0.7942832647319122,5.361668109893799,2.7567880153656006,5.38897180557251,3.134784698486328,6.6856653690338135,4.213338136672974,,,,,,
8789236000.0,99.07,6.400000095367432,6391222784.0,2402.287529858403,138.0,0.0726318359375,2277376.0,4468.881696224213,0.0023634792305529118,0.0234375,2.33919620513916,-0.023761413991451263,0.9480724334716797,-0.0233919620513916,-0.00036945100873708725,0.0,0.1138773113489151,1.3635743856430054,0.8207127516293969,5.397554397583008,2.9515981674194336,5.5114312171936035,3.220357656478882,6.820166110992432,4.1946375370025635,,,,,,
8789236000.0,87.77,6.099999904632568,6391222784.0,2436.9161830623107,139.0,0.078125,2293760.0,4475.604947566986,0.0013040285557508469,0.0081787109375,2.3108036518096924,-0.02247139811515808,0.9357036352157593,-0.02310803532600403,0.0006366400048136711,0.0,-0.010634106583893299,1.3633434772491455,0.8164360454581154,5.5596513748168945,2.8582873344421387,5.549017906188965,3.1820833683013916,6.7232513427734375,4.200903654098511,,,,,,
8789236000.0,82.3,6.199999809265137,6391222784.0,2434.8576455236243,140.0,0.0732421875,2310144.0,4482.333883047104,0.0022764927707612514,0.0140380859375,2.331249713897705,-0.022477509453892708,1.0400227308273315,-0.023312494158744812,0.000834987498819828,0.0,-0.045196447521448135,1.433403491973877,0.7994021260014939,5.647979736328125,2.929516315460205,5.602783203125,3.2004079818725586,6.728935480117798,4.1969685554504395,,,,,,
8789236000.0,87.81,6.5,6391222784.0,2404.2581140480697,141.0,0.0726318359375,2326528.0,4489.148459196091,0.002013186691328883,0.0145263671875,2.3254263401031494,-0.022435642778873444,0.9745205044746399,-0.023254264146089554,0.0008186232298612595,0.0,0.11662156879901886,1.3940683603286743,0.7902419528205566,5.4276957511901855,2.7867438793182373,5.544317245483398,3.043860673904419,6.814576148986816,4.2115747928619385,,,,,,
8789236000.0,103.55,6.199999809265137,6391222784.0,2464.6882563811773,142.0,0.062255859375,2342912.0,4495.795953035355,0.002690708264708519,0.02069091796875,2.3323750495910645,-0.023683171719312668,0.8936664462089539,-0.023323751986026764,-0.00035941973328590393,0.0,-0.03709443658590317,1.3278825283050537,0.7931112138013403,5.295730113983154,2.658159017562866,5.258635997772217,2.919384002685547,6.647493839263916,4.199542284011841,,,,,,
8789236000.0,104.74,6.099999904632568,6391222784.0,2450.563087698768,143.0,0.0555419921875,2359296.0,4502.4817633628845,0.0023316210135817528,0.02093505859375,2.3014726638793945,-0.022051839157938957,0.8299769163131714,-0.023014724254608154,0.0009628860279917717,0.0,-0.020757978782057762,1.2893092632293701,0.7959785382017259,5.121374130249023,2.5357656478881836,5.100616455078125,2.854428768157959,6.685810327529907,4.209481477737427,,,,,,
8789236000.0,103.97,6.0,6391222784.0,2437.6357341390362,144.0,0.0592041015625,2375680.0,4509.2030301094055,0.0037678158842027187,0.03759765625,2.33986496925354,-0.02273726835846901,0.8654679656028748,-0.02339864894747734,0.0006613810546696186,0.0,0.03324006125330925,1.30966055393219,0.8005894336534807,5.213681221008301,2.653045415878296,5.246921539306641,2.9328157901763916,6.721266746520996,4.2039794921875,,,,,,
8789236000.0,107.7,6.300000190734863,6391222784.0,2451.9672561399734,145.0,0.057373046875,2392064.0,4515.885011672974,0.003978786990046501,0.04052734375,2.288102626800537,-0.02171759121119976,0.8734586834907532,-0.022881027311086655,0.001163434237241745,0.0,-0.032571643590927124,1.3216469287872314,0.7954009687365977,5.312906742095947,2.6797115802764893,5.280335426330566,2.921889066696167,6.681981563568115,4.198601245880127,,,,,,
8789236000.0,98.77,6.199999809265137,6391222784.0,2431.656614634056,146.0,0.0604248046875,2408448.0,4522.622805118561,0.0032432833686470985,0.02947998046875,2.3683576583862305,-0.02264249697327614,0.899441123008728,-0.0236835740506649,0.0010410798713564873,0.0,-0.054002437740564346,1.335245132446289,0.8028890720389452,5.283442974090576,2.65706205368042,5.229440689086914,3.007500648498535,6.737793445587158,4.207726716995239,,,,,,
8789236000.0,111.23,6.5,6391222784.0,2388.0306466729894,147.0,0.0543212890625,2424832.0,4529.483688592911,0.001598858623765409,0.0086669921875,2.3900296688079834,-0.023277074098587036,0.6436326503753662,-0.023900296539068222,0.0006232229061424732,0.0,-0.0219515822827816,1.132694125175476,0.8463253399132384,5.259051322937012,2.651643991470337,5.237099647521973,2.889425754547119,6.860883474349976,4.206493616104126,,,,,,
8789236000.0,114.91,5.400000095367432,6391222784.0,2455.280706463097,148.0,0.052490234375,2441216.0,4536.15665268898,0.0025218098890036345,0.02392578125,2.4276692867279053,-0.02346523478627205,0.8951331973075867,-0.024276692420244217,0.0008114594966173172,0.0,-0.08876243233680725,1.3360819816589355,0.7783256388391329,4.931878089904785,2.5703353881835938,4.84311580657959,2.8377583026885986,6.672964096069336,4.197598934173584,,,,,,
8789236000.0,107.16,6.599999904632568,6391222784.0,2435.0833526661477,149.0,0.0518798828125,2457600.0,4542.884964466095,0.004760292824357748,0.04852294921875,2.4014933109283447,-0.023619553074240685,0.7395504713058472,-0.024014931172132492,0.00039537670090794563,0.0,0.05144551396369934,1.2103086709976196,0.8225580154137357,4.877383232116699,2.5729260444641113,4.928829193115234,2.87321400642395,6.728311777114868,4.207226991653442,,,,,,
8789236000.0,105.26,6.699999809265137,6391222784.0,2437.162843367898,150.0,0.0604248046875,2473984.0,4549.607535362244,0.0029086254071444273,0.0220947265625,2.340874433517456,-0.02274809218943119,0.8390942215919495,-0.023408744484186172,0.0006606504321098328,0.0,0.08569139242172241,1.2956029176712036,0.7957247532879974,5.098079204559326,2.5524861812591553,5.183770656585693,2.8665804862976074,6.722570896148682,4.199024200439453,,,,,,
8789236000.0,100.4,5.5,6391222784.0,2420.6071013375577,151.0,0.0592041015625,2490368.0,4556.376085281372,0.004534141626209021,0.041748046875,2.376603603363037,-0.02257116325199604,0.8733111619949341,-0.023766033351421356,0.0011948738247156143,0.0,-0.07432620972394943,1.3159523010253906,0.8076112114546046,5.086979389190674,2.66504168510437,5.012653350830078,3.0002007484436035,6.768549919128418,4.2052342891693115,,,,,,
8789236000.0,95.53,5.900000095367432,6391222784.0,2404.213701239607,152.0,0.057373046875,2506752.0,4563.190787315369,0.001605830155313015,0.01129150390625,2.395433187484741,-0.022707320749759674,0.8261213302612305,-0.023954328149557114,0.0012470073997974396,0.0,0.013357370160520077,1.2856779098510742,0.8122621520505553,4.979770183563232,2.6530587673187256,4.993127346038818,2.967264175415039,6.814702033996582,4.2168920040130615,,,,,,
8789236000.0,115.2,6.0,6391222784.0,2395.9503645397203,153.0,0.054931640625,2523136.0,4570.0289924144745,0.0040809414349496365,0.038330078125,2.3604931831359863,-0.022339224815368652,0.7321240305900574,-0.02360493130981922,0.0012657064944505692,0.0,0.03198232874274254,1.2059122323989868,0.8332661175643072,4.733120918273926,2.6897356510162354,4.765103340148926,2.9532737731933594,6.838205099105835,4.188336133956909,,,,,,
8789236000.0,97.41,7.199999809265137,6391222784.0,2436.2553553976604,154.0,0.0665283203125,2539520.0,4576.7540674209595,0.002879595384001732,0.02716064453125,2.3669023513793945,-0.022552460432052612,0.8566790223121643,-0.02366902306675911,0.0011165626347064972,0.0,0.07345198839902878,1.3052326440811157,0.8199919044654229,5.113433837890625,2.8096446990966797,5.186885833740234,3.0763936042785645,6.725075006484985,4.20673680305481,,,,,,
8789236000.0,100.46,5.900000095367432,6391222784.0,2400.2918352361753,155.0,0.057373046875,2555904.0,4583.579904079437,0.0033754874020814896,0.03076171875,2.358743906021118,-0.022077083587646484,0.8123036026954651,-0.023587439209222794,0.001510357134975493,0.0,0.005339903756976128,1.2597135305404663,0.823100511368275,4.961426734924316,2.70727801322937,4.966766834259033,2.9950804710388184,6.825836658477783,4.204025030136108,,,,,,
8789236000.0,111.31,5.800000190734863,6391222784.0,2434.634654142138,156.0,0.048828125,2572288.0,4590.309455871582,0.0019977616611868143,0.0162353515625,2.385006904602051,-0.022393133491277695,0.6863960027694702,-0.02385006472468376,0.001456931233406067,0.0,0.050737980753183365,1.1609115600585938,0.8324365299173402,4.490842819213867,2.567031145095825,4.5415802001953125,2.8360207080841064,6.729551792144775,4.2127439975738525,,,,,,
8789236000.0,123.14,7.199999809265137,6391222784.0,2441.955905587694,157.0,0.0537109375,2588672.0,4597.018831729889,0.0022315140813589096,0.01739501953125,2.3596303462982178,-0.022782810032367706,0.6633766889572144,-0.023596305400133133,0.0008134925737977028,0.0,0.09765671193599701,1.1573320627212524,0.8421460745366317,4.704096794128418,2.6772141456604004,4.801753044128418,2.912931442260742,6.709375858306885,4.200071811676025,,,,,,
8789236000.0,132.45,6.099999904632568,6391222784.0,2435.864418583944,158.0,0.052490234375,2605056.0,4603.7449860572815,0.0024202540516853333,0.02703857421875,2.3605518341064453,-0.023077797144651413,0.748366117477417,-0.02360551804304123,0.0005277218297123909,0.0,0.0015207859687507153,1.219738245010376,0.8121674652987161,4.724897384643555,2.556077003479004,4.7264180183410645,2.8143699169158936,6.726154327392578,4.203352212905884,,,,,,
8789252000.0,116.07,6.699999809265137,6391222784.0,2412.7933490662326,159.0,0.0592041015625,2621440.0,4610.535455703735,0.002560180611908436,0.0252685546875,2.2937755584716797,-0.022354189306497574,0.8228484988212585,-0.022937754169106483,0.0005835685878992081,0.0,0.13383421301841736,1.2713664770126343,0.8056490286713839,4.990249156951904,2.601503849029541,5.124083518981934,2.883880853652954,6.790469646453857,4.186230659484863,,,,,,
,,,,,,,,,,,,,,,,,,,,,,,,,,0.030216282233595848,1.0736979246139526,0.9461538195610046,0.030216282233595848,1.0736979246139526,0.9461538195610046
,,,,,,,,,,,,,,,,,,,,,,,,,,0.02161042019724846,0.9726518392562866,0.9133486747741699,0.02161042019724846,0.9726518392562866,0.9133486747741699
,,,,,,,,,,,,,,,,,,,,,,,,,,0.019666219130158424,0.9484778046607971,0.8946041464805603,0.019666219130158424,0.9484778046607971,0.8946041464805603
,,,,,,,,,,,,,,,,,,,,,,,,,,0.019146686419844627,0.9281377792358398,0.8690922260284424,0.019146686419844627,0.9281377792358398,0.8690922260284424
,,,,,,,,,,,,,,,,,,,,,,,,,,0.018676865845918655,0.9049152731895447,0.8505198359489441,0.018676865845918655,0.9049152731895447,0.8505198359489441
,,,,,,,,,,,,,,,,,,,,,,,,,,0.018427584320306778,0.8852384686470032,0.8270339369773865,0.018427584320306778,0.8852384686470032,0.8270339369773865
8789316000.0,107.94,5.5,6188634112.0,18.41217464741032,160.0,0.0616455078125,2637824.0,5500.3814578056335,0.0052413237281143665,0.06256103515625,2.232381820678711,-0.02113809436559677,0.9657953381538391,-0.022323818877339363,0.001185726374387741,0.0,-0.02916242927312851,1.383635401725769,0.7958476966743757,5.304598808288574,2.849841594696045,5.2754364013671875,3.0622777938842773,889.8460021018982,4.2007224559783936,,,,,,
8789316000.0,95.02,6.800000190734863,6391222784.0,2427.486303814517,161.0,0.072021484375,2654208.0,5507.130826473236,0.0052941590547561646,0.05999755859375,2.103469133377075,-0.019548416137695312,0.9716572761535645,-0.021034689620137215,0.0014862758107483387,0.0,0.055641792714595795,1.3816195726394653,0.7980108684494801,5.4814252853393555,2.8363895416259766,5.53706693649292,3.074145555496216,6.749368667602539,4.204017400741577,,,,,,
8789316000.0,81.72,6.400000095367432,6391222784.0,2417.8131394789743,162.0,0.0634765625,2670592.0,5513.9071979522705,0.0042785173282027245,0.044189453125,2.1709282398223877,-0.02074098214507103,0.8565239906311035,-0.02170928195118904,0.0009683039970695972,0.0,0.041341520845890045,1.3019163608551025,0.8068858175386442,5.048429489135742,2.675781488418579,5.089770793914795,2.962620973587036,6.776371479034424,4.189294338226318,,,,,,
8789316000.0,98.84,6.900000095367432,6391222784.0,2380.5430532560845,163.0,0.059814453125,2686976.0,5520.789661169052,0.00460192933678627,0.05157470703125,2.2552175521850586,-0.02082706242799759,0.7124643921852112,-0.02255217544734478,0.0017251092940568924,0.0,0.012746079824864864,1.1890382766723633,0.8339864833728058,5.056336402893066,2.665661573410034,5.069082736968994,2.9182615280151367,6.882463216781616,4.207314729690552,,,,,,
8789316000.0,114.81,6.900000095367432,6391222784.0,2429.655999386783,164.0,0.059814453125,2703360.0,5527.533002614975,0.004853225313127041,0.043212890625,2.1538567543029785,-0.021490707993507385,0.8417028784751892,-0.021538564935326576,4.7857873141765594e-05,0.0,0.09014777094125748,1.2978272438049316,0.8128729521475493,5.149043083190918,2.728363275527954,5.239191055297852,3.000189781188965,6.743341445922852,4.17982029914856,,,,,,
8789316000.0,103.83,5.5,6391222784.0,2429.7436238897944,165.0,0.05859375,2719744.0,5534.276100873947,0.0033723616506904364,0.02801513671875,2.2224371433258057,-0.02039252407848835,0.9064907431602478,-0.02222437411546707,0.0018318472430109978,0.0,-0.11451517045497894,1.337514877319336,0.8004539039099955,5.316695213317871,2.702465772628784,5.202179908752441,2.994174003601074,6.743098258972168,4.190588474273682,,,,,,
8789316000.0,95.93,6.900000095367432,6391222784.0,2418.847326558491,166.0,0.0726318359375,2736128.0,5541.049575090408,0.0071701412089169025,0.089111328125,2.269670009613037,-0.019183816388249397,0.9192327260971069,-0.02269669994711876,0.003512885421514511,0.0,0.059282366186380386,1.3539814949035645,0.7905022798293997,5.416203022003174,2.6834394931793213,5.475485801696777,2.9581704139709473,6.773474216461182,4.2139575481414795,,,,,,
8789316000.0,107.41,6.5,6391222784.0,2394.631967005121,167.0,0.0628662109375,2752512.0,5547.891545057297,0.006989103741943836,0.0802001953125,2.131535530090332,-0.01687939651310444,0.9648762345314026,-0.021315356716513634,0.004435955546796322,0.0,-0.017638102173805237,1.3903073072433472,0.7621186175901042,5.437107563018799,2.5806610584259033,5.419469833374023,2.850562810897827,6.841969966888428,4.198499917984009,,,,,,
8789316000.0,115.29,6.300000190734863,6391222784.0,2435.6563500901293,168.0,0.05615234375,2768896.0,5554.618273973465,0.005146519280970097,0.05743408203125,2.3195018768310547,-0.020772602409124374,0.7879257202148438,-0.023195017129182816,0.0024224184453487396,0.0,-0.03511590138077736,1.2376877069473267,0.7966089489700499,5.142065525054932,2.4317288398742676,5.106949806213379,2.7443854808807373,6.726728916168213,4.191443204879761,,,,,,
8789316000.0,113.74,5.5,6391222784.0,2442.7745571717574,169.0,0.0506591796875,2785280.0,5561.325401306152,0.005072358530014753,0.058837890625,2.2552361488342285,-0.021179355680942535,0.7529494762420654,-0.022552361711859703,0.001373005099594593,0.0,-0.031475599855184555,1.2063546180725098,0.8181271095326641,5.050856113433838,2.503026008605957,5.019380569458008,2.828726291656494,6.707127332687378,4.204471826553345,,,,,,
8789316000.0,103.57,6.900000095367432,6391222784.0,2428.3210232327283,170.0,0.0634765625,2801664.0,5568.072449922562,0.005331954453140497,0.0682373046875,2.347985029220581,-0.02262727916240692,0.7000102400779724,-0.023479850962758064,0.000852570403367281,0.0,0.06499756872653961,1.1592832803726196,0.839399370633626,5.271889686584473,2.663914918899536,5.336886882781982,2.8927834033966064,6.747048616409302,4.201879262924194,,,,,,
8789316000.0,110.44,7.199999809265137,6391222784.0,2414.77714079776,171.0,0.0628662109375,2818048.0,5574.857341051102,0.0046227844431996346,0.05419921875,2.297105073928833,-0.02162589132785797,0.8059064149856567,-0.022971048951148987,0.0013451576232910156,0.0,0.05761098861694336,1.267539381980896,0.8083094394551075,5.271238327026367,2.6747989654541016,5.328849792480469,2.8950836658477783,6.784891128540039,4.204252243041992,,,,,,
8789316000.0,101.79,6.599999904632568,6391222784.0,2436.660932716372,172.0,0.0616455078125,2834432.0,5581.581296682358,0.004419402685016394,0.0467529296875,2.3508236408233643,-0.022098315879702568,0.6990669965744019,-0.023508239537477493,0.0014099238906055689,0.0,0.010116997174918652,1.1793012619018555,0.8409832410145316,5.349909782409668,2.6895649433135986,5.360027313232422,2.95735502243042,6.7239556312561035,4.20033073425293,,,,,,
8789316000.0,122.51,6.699999809265137,6391222784.0,2430.7345640989797,173.0,0.0543212890625,2850816.0,5588.321645975113,0.003521110862493515,0.0379638671875,2.2584056854248047,-0.020449187606573105,0.675819993019104,-0.02258405275642872,0.0021348651498556137,0.0,0.011806032620370388,1.1522237062454224,0.8357101968311705,5.327327728271484,2.6032774448394775,5.339133262634277,2.8427019119262695,6.740349292755127,4.193583250045776,,,,,,
8789316000.0,120.62,6.400000095367432,6391222784.0,2411.2580198010282,174.0,0.0579833984375,2867200.0,5595.116439342499,0.0016344533069059253,0.01422119140625,2.2887301445007324,-0.022355984896421432,0.7067134976387024,-0.022887300699949265,0.0005313195288181305,0.0,-0.051485538482666016,1.183482050895691,0.8425727233526242,5.289856433868408,2.7162277698516846,5.238370895385742,2.982783079147339,6.794793367385864,4.1949992179870605,,,,,,
8789316000.0,126.48,6.199999809265137,6391222784.0,2446.3056991240364,175.0,0.05126953125,2883584.0,5601.813885211945,0.0022175749763846397,0.0185546875,2.3392422199249268,-0.02301272749900818,0.6751948595046997,-0.02339242212474346,0.0003796890377998352,0.0,-0.02861935645341873,1.1560624837875366,0.8368504956020062,4.997032165527344,2.6114237308502197,4.96841287612915,2.862124443054199,6.697445869445801,4.182249069213867,,,,,,
8789316000.0,122.71,6.699999809265137,6391222784.0,2415.328141134968,176.0,0.0537109375,2899968.0,5608.597228527069,0.0034189228899776936,0.0306396484375,2.2424018383026123,-0.02177530527114868,0.849202036857605,-0.022424016147851944,0.0006487101782113314,0.0,-0.01710433140397072,1.2908838987350464,0.7852117392693961,4.968661308288574,2.5610721111297607,4.951557159423828,2.7853639125823975,6.783343315124512,4.205914497375488,,,,,,
8789316000.0,122.02,6.199999809265137,6391222784.0,2450.177941819882,177.0,0.0555419921875,2916352.0,5615.284089803696,0.004795221611857414,0.04901123046875,2.3005757331848145,-0.021252254024147987,0.7063041925430298,-0.023005757480859756,0.0017535043880343437,0.0,-0.01944541186094284,1.1857556104660034,0.8352162286186231,5.033339500427246,2.620818853378296,5.013894081115723,2.9210424423217773,6.686861276626587,4.195689916610718,,,,,,
8789316000.0,109.22,7.400000095367432,6391222784.0,2408.5363192307877,178.0,0.0543212890625,2932736.0,5622.0865614414215,0.005454463884234428,0.0616455078125,2.2557694911956787,-0.021049287170171738,0.6959095597267151,-0.022557692602276802,0.001508401706814766,0.0,0.0958416759967804,1.1765999794006348,0.8306622365955498,5.125850677490234,2.6415834426879883,5.221692085266113,2.859248638153076,6.80247163772583,4.2074480056762695,,,,,,
8789316000.0,103.93,6.900000095367432,6391222784.0,2375.6224686784135,179.0,0.05859375,2949120.0,5628.983280181885,0.005968080833554268,0.06005859375,2.2166004180908203,-0.018056167289614677,0.8115642666816711,-0.02216600440442562,0.004109835252165794,0.0,0.020503386855125427,1.2703779935836792,0.804958596757438,5.208486557006836,2.633350372314453,5.22899055480957,2.876535177230835,6.896718740463257,4.1840386390686035,,,,,,
8789316000.0,126.61,7.0,6391222784.0,2430.3990321901942,180.0,0.0653076171875,2965504.0,5635.724560022354,0.0038274885155260563,0.03692626953125,2.2329695224761963,-0.021623577922582626,0.7419593334197998,-0.022329697385430336,0.0007061151554808021,0.0,0.02635733224451542,1.215287208557129,0.8392933516943266,5.563036918640137,2.814061164855957,5.589394569396973,3.0315303802490234,6.74127984046936,4.201422214508057,,,,,,
8789316000.0,106.03,6.699999809265137,6391222784.0,2417.210158607057,181.0,0.064697265625,2981888.0,5642.502621889114,0.0029232106171548367,0.0277099609375,2.2650344371795654,-0.021795649081468582,0.7156357765197754,-0.02265034429728985,0.0008546952158212662,0.0,-0.0007513388991355896,1.19580078125,0.8446642583305831,5.441420555114746,2.7670931816101074,5.440669536590576,3.034052610397339,6.778061866760254,4.196027994155884,,,,,,
8789316000.0,105.41,7.599999904632568,6391222784.0,2396.496817241768,182.0,0.0787353515625,2998272.0,5649.339267730713,0.0027444418519735336,0.022705078125,2.1223835945129395,-0.020885014906525612,0.9028061628341675,-0.02122383378446102,0.00033881887793540955,0.0,0.0830191820859909,1.3394923210144043,0.793630701891339,5.848514556884766,2.7038767337799072,5.9315338134765625,2.9486122131347656,6.836645841598511,4.216273069381714,,,,,,
8789316000.0,88.56,6.400000095367432,6391222784.0,2436.689099222367,183.0,0.074462890625,3014656.0,5656.063145637512,0.0040470608510077,0.04022216796875,2.178471803665161,-0.020874399691820145,0.9709826707839966,-0.021784715354442596,0.0009103147312998772,0.0,-0.02391493320465088,1.3953914642333984,0.7777251179204432,5.697766304016113,2.644474744796753,5.673851013183594,2.9597208499908447,6.723877906799316,4.186387777328491,,,,,,
8789316000.0,74.46,8.0,6391222784.0,2429.734689337386,184.0,0.0885009765625,3031040.0,5662.806268692017,0.0021945228800177574,0.01702880859375,2.1313562393188477,-0.02054980769753456,0.9235813021659851,-0.021313561126589775,0.0007637524977326393,0.0,0.06996700167655945,1.3525654077529907,0.7935923570593912,6.21537971496582,2.679346799850464,6.285346984863281,2.977113723754883,6.7431230545043945,4.20357871055603,,,,,,
8789316000.0,77.04,7.400000095367432,6391222784.0,2431.613162784613,185.0,0.0848388671875,3047424.0,5669.544182538986,0.0037943467032164335,0.0390625,2.158078670501709,-0.020632775500416756,1.0387405157089233,-0.021580785512924194,0.0009480100125074387,0.0,-0.0020695808343589306,1.435210108757019,0.7691697743983289,6.2550764083862305,2.6627235412597656,6.253006458282471,2.9872334003448486,6.7379138469696045,4.1895692348480225,,,,,,
8789316000.0,78.75,6.5,6391222784.0,2432.9968123321305,186.0,0.0836181640625,3063808.0,5676.2782645225525,0.0026468182913959026,0.02484130859375,2.128556966781616,-0.020425714552402496,1.069984793663025,-0.021285567432641983,0.0008598491549491882,0.0,-0.1336514949798584,1.4600290060043335,0.7636400734499832,6.452245712280273,2.663381338119507,6.318593978881836,3.0031325817108154,6.734081983566284,4.202800750732422,,,,,,
8789316000.0,98.27,6.199999809265137,6391222784.0,2430.6454065633798,187.0,0.07080078125,3080192.0,5683.018861055374,0.002482777228578925,0.02520751953125,2.168896198272705,-0.020122244954109192,0.8214214444160461,-0.02168896235525608,0.0015667174011468887,0.0,-0.006990524008870125,1.27948796749115,0.803666741307425,5.742072105407715,2.5797181129455566,5.735081672668457,2.887615442276001,6.740596532821655,4.195574045181274,,,,,,
8789316000.0,84.32,5.699999809265137,6391222784.0,2421.1264741696746,188.0,0.072021484375,3096576.0,5689.785959005356,0.004451664164662361,0.044189453125,2.099264621734619,-0.020223060622811317,0.9847469329833984,-0.020992645993828773,0.0007695797830820084,0.0,-0.14528387784957886,1.4004969596862793,0.7746267008765734,5.7179059982299805,2.5482184886932373,5.572622299194336,2.9500608444213867,6.7670979499816895,4.1948771476745605,,,,,,
8789316000.0,81.55,6.900000095367432,6391222784.0,2332.64159401829,189.0,0.069580078125,3112960.0,5696.809755563736,0.0024886021856218576,0.02294921875,2.1840407848358154,-0.020386945456266403,0.8938067555427551,-0.021840408444404602,0.0014534646179527044,0.0,-0.08453116565942764,1.3344093561172485,0.7966095816506378,5.427759647369385,2.6035494804382324,5.343228816986084,2.9588563442230225,7.023796558380127,4.198069334030151,,,,,,
8789316000.0,97.01,6.900000095367432,6391222784.0,2373.034659830212,190.0,0.0634765625,3129344.0,5703.713995218277,0.0029050579760223627,0.02398681640625,2.1812150478363037,-0.021677076816558838,0.8001949787139893,-0.02181215025484562,0.00013506971299648285,0.0,-0.020792890340089798,1.2621781826019287,0.8166508087950513,5.154895782470703,2.6372528076171875,5.134102821350098,2.947685480117798,6.904239654541016,4.192312479019165,,,,,,
8789440000.0,95.99,6.400000095367432,6391222784.0,2391.05512881925,191.0,0.062255859375,3145728.0,5710.566200256348,0.004392306786030531,0.04766845703125,2.137284278869629,-0.01988700032234192,0.8935067653656006,-0.02137284353375435,0.001485846471041441,0.0,0.009725919924676418,1.3345119953155518,0.790804928373676,5.1840972900390625,2.601167917251587,5.193823337554932,2.917741537094116,6.852205038070679,4.199228525161743,,,,,,
,,,,,,,,,,,,,,,,,,,,,,,,,,0.02664707973599434,0.9804695248603821,0.8767489790916443,0.02664707973599434,0.9804695248603821,0.8767489790916443
,,,,,,,,,,,,,,,,,,,,,,,,,,0.02237212285399437,0.8865768909454346,0.8272122144699097,0.02237212285399437,0.8865768909454346,0.8272122144699097
,,,,,,,,,,,,,,,,,,,,,,,,,,0.021278757601976395,0.8656712174415588,0.8047664165496826,0.021278757601976395,0.8656712174415588,0.8047664165496826
,,,,,,,,,,,,,,,,,,,,,,,,,,0.020908277481794357,0.8319768309593201,0.7751902341842651,0.020908277481794357,0.8319768309593201,0.7751902341842651
,,,,,,,,,,,,,,,,,,,,,,,,,,0.02117694541811943,0.8224184513092041,0.7681067585945129,0.02117694541811943,0.8224184513092041,0.7681067585945129
,,,,,,,,,,,,,,,,,,,,,,,,,,0.020636463537812233,0.7948163151741028,0.7387198805809021,0.020636463537812233,0.7948163151741028,0.7387198805809021
8789440000.0,100.87,6.699999809265137,6188634112.0,18.454696682405228,192.0,0.0823974609375,3162112.0,6598.361880779266,0.0032248233910650015,0.0274658203125,2.1238179206848145,-0.020118460059165955,0.9489616751670837,-0.021238179877400398,0.0011197164421901107,0.0,0.1345025897026062,1.3765515089035034,0.8012225283184868,5.364156723022461,2.7843942642211914,5.498659133911133,3.0875132083892822,887.7956805229187,4.220927715301514,,,,,,
8789440000.0,96.15,6.400000095367432,6391222784.0,2445.9416523864043,193.0,0.06591796875,3178496.0,6605.060323476791,0.003114630002528429,0.0274658203125,2.1403846740722656,-0.020577777177095413,0.8544334173202515,-0.02140384539961815,0.0008260700851678848,0.0,0.04271998256444931,1.301820158958435,0.8023231710278582,5.362299919128418,2.6629297733306885,5.405019760131836,2.928013563156128,6.698442697525024,4.201310157775879,,,,,,
8789440000.0,96.76,5.599999904632568,6391222784.0,2418.2528502486925,194.0,0.0616455078125,3194880.0,6611.835462808609,0.002353557851165533,0.0185546875,2.1300644874572754,-0.02004624344408512,0.936063289642334,-0.02130064181983471,0.0012544011697173119,0.0,-0.08865129947662354,1.368302583694458,0.778565826854425,5.142976760864258,2.638537883758545,5.054325580596924,2.907768964767456,6.775139331817627,4.191489219665527,,,,,,
8789440000.0,91.38,6.599999904632568,6391222784.0,2411.6317879073013,195.0,0.0701904296875,3211264.0,6618.629203081131,0.005485931411385536,0.06207275390625,2.136946678161621,-0.019809022545814514,0.7558391690254211,-0.021369464695453644,0.0015604421496391296,0.0,0.07943681627511978,1.2233270406723022,0.83182963409197,5.2254557609558105,2.679431200027466,5.304892539978027,2.983100414276123,6.793740272521973,4.209840774536133,,,,,,
8789440000.0,84.41,6.599999904632568,6391222784.0,2385.585177043914,196.0,0.0775146484375,3227648.0,6625.497119665146,0.005369342397898436,0.056396484375,2.0803534984588623,-0.019044987857341766,0.8808414936065674,-0.020803537219762802,0.0017585474997758865,0.0,-0.032562483102083206,1.3287497758865356,0.8030353035769079,5.389801979064941,2.662360906600952,5.357239723205566,2.9939815998077393,6.867916584014893,4.190962076187134,,,,,,
8789440000.0,105.41,7.0,6391222784.0,2434.4568941442826,197.0,0.0738525390625,3244032.0,6632.227162837982,0.0038920878432691097,0.037109375,2.1321451663970947,-0.02068931609392166,0.8080228567123413,-0.021321449428796768,0.000632135197520256,0.0,0.10084328055381775,1.2761411666870117,0.8191837905829261,5.481952667236328,2.7544782161712646,5.582796096801758,3.0010972023010254,6.730043172836304,4.196717023849487,,,,,,
8789440000.0,87.54,6.800000190734863,6391222784.0,2425.556579326434,198.0,0.0701904296875,3260416.0,6638.981901168823,0.002912814961746335,0.02642822265625,2.1419243812561035,-0.022096477448940277,0.8078128695487976,-0.02141924574971199,-0.0006772298365831375,0.0,-0.015938714146614075,1.2689248323440552,0.8182614456015938,5.402976989746094,2.7129034996032715,5.387038230895996,2.976543426513672,6.7547383308410645,4.1974241733551025,,,,,,
8789440000.0,112.38,7.099999904632568,6391222784.0,2397.8985963113955,199.0,0.0653076171875,3276800.0,6645.81455039978,0.002525669289752841,0.021484375,2.1638269424438477,-0.021001946181058884,0.7774795889854431,-0.02163826860487461,0.0006363238207995892,0.0,0.06629469245672226,1.2452991008758545,0.8116294942085535,5.195255756378174,2.60099720954895,5.261550426483154,2.8692424297332764,6.832649230957031,4.192221641540527,,,,,,
8789440000.0,112.78,6.699999809265137,6391222784.0,2434.681836919078,200.0,0.0640869140625,3293184.0,6652.543971776962,0.0045926510356366634,0.048095703125,2.155200719833374,-0.020739253610372543,0.8890636563301086,-0.021552009508013725,0.000812755897641182,0.0,-0.03328584134578705,1.3338321447372437,0.7923446470561191,5.506224632263184,2.642317295074463,5.472938537597656,2.9270458221435547,6.729421377182007,4.1914544105529785,,,,,,
8789440000.0,87.28,6.599999904632568,6391222784.0,2393.2488393507992,201.0,0.068359375,3309568.0,6659.389895915985,0.004567624535411596,0.0447998046875,2.2213494777679443,-0.020004790276288986,0.9107968807220459,-0.022213496267795563,0.0022087059915065765,0.0,-0.02448052540421486,1.343928337097168,0.7836276129414225,5.492053985595703,2.593822956085205,5.467573165893555,2.889183282852173,6.845924139022827,4.188555717468262,,,,,,
8789440000.0,93.37,7.300000190734863,6391222784.0,2406.267068615305,202.0,0.068359375,3325952.0,6666.198782682419,0.004047257825732231,0.0380859375,2.1244771480560303,-0.020795686170458794,0.8659293055534363,-0.021244771778583527,0.00044908374547958374,0.0,0.07874725759029388,1.307519555091858,0.7865068426611602,5.590254783630371,2.5101118087768555,5.669001579284668,2.8298020362854004,6.808886766433716,4.19823956489563,,,,,,
8789440000.0,78.99,6.699999809265137,6391222784.0,2418.442380189146,203.0,0.0848388671875,3342336.0,6672.973391056061,0.004191700369119644,0.0428466796875,2.1922972202301025,-0.02075965702533722,0.9595774412155151,-0.021922970190644264,0.0011633168905973434,0.0,0.07953587174415588,1.3818546533584595,0.7920244034050868,5.638293743133545,2.6930129528045654,5.717829704284668,3.030094623565674,6.774608373641968,4.189864873886108,,,,,,
8789440000.0,85.12,6.0,6391222784.0,2391.94465209558,204.0,0.0677490234375,3358720.0,6679.823047876358,0.0024046003818511963,0.0186767578125,2.169804334640503,-0.020338503643870354,0.8754335045814514,-0.021698040887713432,0.0013595381751656532,0.0,0.006913236808031797,1.31650710105896,0.7935538400513137,5.460748195648193,2.5813329219818115,5.467660903930664,2.897474527359009,6.849656820297241,4.199167251586914,,,,,,
8789440000.0,89.03,6.5,6391222784.0,2443.0827678802702,205.0,0.0762939453125,3375104.0,6686.529329061508,0.002930225105956197,0.02691650390625,2.116734266281128,-0.020780304446816444,1.0199006795883179,-0.021167341619729996,0.000387030653655529,0.0,0.005613705143332481,1.4145435094833374,0.7536381182738461,5.7814435958862305,2.5907058715820312,5.787057399749756,2.8498992919921875,6.7062811851501465,4.195108652114868,,,,,,
8789440000.0,87.53,7.400000095367432,6391222784.0,2395.216805404057,206.0,0.0787353515625,3391488.0,6693.369628429413,0.00425487756729126,0.046630859375,2.15327787399292,-0.021956661716103554,0.9917012453079224,-0.021532777696847916,-0.0004238816909492016,0.0,0.02513236552476883,1.4064137935638428,0.7523194237773185,5.913349151611328,2.5008363723754883,5.938481330871582,2.8259665966033936,6.840299367904663,4.188298940658569,,,,,,
8789440000.0,98.23,7.199999809265137,6391222784.0,2414.160746248344,207.0,0.0823974609375,3407872.0,6700.156251907349,0.004498743452131748,0.0440673828125,2.069666862487793,-0.0180697999894619,0.9371969103813171,-0.020696667954325676,0.0026268651708960533,0.0,0.08504872024059296,1.3611572980880737,0.7623888077072357,6.098832607269287,2.4851176738739014,6.183880805969238,2.7923812866210938,6.786623477935791,4.20637845993042,,,,,,
8789440000.0,90.42,7.699999809265137,6391222784.0,2424.771328455596,208.0,0.08056640625,3424256.0,6706.913177728653,0.006182432174682617,0.07012939453125,2.188638925552368,-0.019051093608140945,0.8572758436203003,-0.021886387839913368,0.002835296094417572,0.0,0.06263674795627594,1.3017163276672363,0.7661161390325856,5.911927223205566,2.429060459136963,5.9745635986328125,2.6916351318359375,6.756925821304321,4.1898462772369385,,,,,,
8789440000.0,84.85,7.199999809265137,6391222784.0,2435.3986879721256,209.0,0.078125,3440640.0,6713.64061832428,0.0047421883791685104,0.04803466796875,2.1542487144470215,-0.019967909902334213,0.9632859826087952,-0.021542489528656006,0.0015745814889669418,0.0,0.023238573223352432,1.3863866329193115,0.7332890176561275,6.203868865966797,2.332550048828125,6.227107048034668,2.684501886367798,6.727440595626831,4.20861554145813,,,,,,
8789440000.0,94.22,6.900000095367432,6391222784.0,2436.8446315322435,210.0,0.072021484375,3457024.0,6720.364067077637,0.0032853051088750362,0.029541015625,2.2043814659118652,-0.021862024441361427,0.8805617094039917,-0.02204381301999092,0.00018179230391979218,0.0,-0.10569804161787033,1.3206079006195068,0.7705418400119703,6.057807922363281,2.4399032592773438,5.952109336853027,2.756906747817993,6.723448753356934,4.195517063140869,,,,,,
8789440000.0,92.33,6.5,6391222784.0,2435.452460187208,211.0,0.0640869140625,3473408.0,6727.091359138489,0.0031226607970893383,0.027587890625,2.260446071624756,-0.02237791195511818,0.8346595764160156,-0.022604461759328842,0.00022654980421066284,0.0,-0.1070728749036789,1.285724401473999,0.7874530646707005,5.853226661682129,2.4417078495025635,5.746153831481934,2.788820266723633,6.727292060852051,4.195309400558472,,,,,,
8789440000.0,107.65,6.699999809265137,6391222784.0,2339.316919568654,212.0,0.068359375,3489792.0,6734.095113039017,0.002266491763293743,0.01226806640625,2.263946771621704,-0.02143147960305214,0.8803722262382507,-0.02263946458697319,0.0012079887092113495,0.0,-0.09390214830636978,1.3110374212265015,0.7756309023565771,6.045346736907959,2.4458463191986084,5.951444625854492,2.767793655395508,7.003753900527954,4.199975490570068,,,,,,
8789440000.0,98.43,7.199999809265137,6391222784.0,2327.0062144948533,213.0,0.06591796875,3506176.0,6741.135919332504,0.003150428645312786,0.02752685546875,2.2565784454345703,-0.02188514731824398,0.7522454261779785,-0.02256578579545021,0.0006806389428675175,0.0,-0.028166264295578003,1.2193926572799683,0.7949593914873563,5.984415054321289,2.453965902328491,5.956249237060547,2.6929214000701904,7.040806293487549,4.190962314605713,,,,,,
8789440000.0,105.68,7.599999904632568,6391222784.0,2355.1273516367282,214.0,0.0665283203125,3522560.0,6748.092655658722,0.0015424506273120642,0.01177978515625,2.2681186199188232,-0.021557960659265518,0.6225519180297852,-0.022681185975670815,0.001123223453760147,0.0,0.012077562510967255,1.1157442331314087,0.8328953222085165,5.803964614868164,2.432823419570923,5.816041946411133,2.7294199466705322,6.956736326217651,4.214410781860352,,,,,,
8789440000.0,114.14,7.199999809265137,6391222784.0,2427.8598021823277,215.0,0.0634765625,3538944.0,6754.8409860134125,0.0031909418758004904,0.0322265625,2.313863754272461,-0.022313525900244713,0.7078251838684082,-0.023138636723160744,0.0008251089602708817,0.0,0.013098128139972687,1.1892468929290771,0.8163017024106903,5.638877868652344,2.527961492538452,5.651975631713867,2.7747206687927246,6.748330354690552,4.191272974014282,,,,,,
8789440000.0,122.02,7.5,6391222784.0,2400.8593945833377,216.0,0.05615234375,3555328.0,6761.665209054947,0.0026635797694325447,0.0264892578125,2.2636120319366455,-0.022195177152752876,0.6265748739242554,-0.02263612113893032,0.0004409477114677429,0.0,0.04710714891552925,1.1081806421279907,0.8285598523439409,5.493788242340088,2.4495129585266113,5.540895462036133,2.676419973373413,6.824223041534424,4.196595191955566,,,,,,
8789440000.0,127.32,6.300000190734863,6391222784.0,2431.0774989682345,217.0,0.0506591796875,3571712.0,6768.404607534409,0.003427634248510003,0.0325927734375,2.3290185928344727,-0.02280297875404358,0.7044357657432556,-0.023290181532502174,0.0004872002173215151,0.0,-0.04887079447507858,1.1737905740737915,0.802443562298611,5.428895950317383,2.3836309909820557,5.3800249099731445,2.640857696533203,6.73939847946167,4.195985555648804,,,,,,
8789440000.0,131.43,7.099999904632568,6391222784.0,2428.957892287551,218.0,0.05126953125,3588096.0,6775.149887084961,0.0028382157906889915,0.02825927734375,2.365823268890381,-0.02364857867360115,0.6620736122131348,-0.023658232763409615,9.65222716331482e-06,0.0,-0.0010638274252414703,1.1424390077590942,0.8119239114342728,5.356725215911865,2.4345061779022217,5.355661392211914,2.6343061923980713,6.745279550552368,4.192478656768799,,,,,,
8789440000.0,127.28,7.199999809265137,6391222784.0,2393.75145077003,219.0,0.05615234375,3604480.0,6781.99437379837,0.0026363725773990154,0.01904296875,2.3174312114715576,-0.022151773795485497,0.6394582986831665,-0.023174313828349113,0.001022540032863617,0.0,0.055090516805648804,1.1232112646102905,0.8223223816708958,5.398256301879883,2.429189443588257,5.4533467292785645,2.664680242538452,6.844486713409424,4.205754995346069,,,,,,
8789440000.0,115.42,7.5,6391222784.0,2340.135843195811,220.0,0.0518798828125,3620864.0,6788.995676755905,0.0018277084454894066,0.013916015625,2.3614954948425293,-0.02341321110725403,0.5355961322784424,-0.023614952340722084,0.00020174216479063034,0.0,0.028042413294315338,1.0337802171707153,0.8532894920098992,5.333967208862305,2.445044755935669,5.362009525299072,2.698967456817627,7.00130295753479,4.205393075942993,,,,,,
8789440000.0,149.77,7.0,6391222784.0,2365.0411199532386,221.0,0.0531005859375,3637248.0,6795.923251867294,0.001938102999702096,0.01202392578125,2.312312364578247,-0.022521670907735825,0.5993019938468933,-0.02312312461435795,0.0006014518439769745,0.0,0.021604839712381363,1.0907665491104126,0.823913136936054,5.518467903137207,2.347913980484009,5.540072441101074,2.5993707180023193,6.92757511138916,4.200227975845337,,,,,,
8789440000.0,141.72,6.199999809265137,6391222784.0,2339.720892732888,222.0,0.050048828125,3653632.0,6802.925796508789,0.0019036817830055952,0.01214599609375,2.2674560546875,-0.021743524819612503,0.7927132844924927,-0.02267456240952015,0.0009310356108471751,0.0,-0.026112277060747147,1.2539823055267334,0.7562081132939094,5.5593438148498535,2.2496860027313232,5.533230781555176,2.5396952629089355,7.002544641494751,4.19526743888855,,,,,,
8789456000.0,106.81,7.800000190734863,6391222784.0,2414.763309612929,223.0,0.0640869140625,3670016.0,6809.7107264995575,0.0026708925142884254,0.0220947265625,2.305042028427124,-0.022698262706398964,0.722967803478241,-0.023050418123602867,0.0003521628677845001,0.0,0.08130437135696411,1.1925214529037476,0.802297936489006,5.817931175231934,2.4042885303497314,5.899235248565674,2.6820108890533447,6.784929990768433,4.202885627746582,,,,,,
,,,,,,,,,,,,,,,,,,,,,,,,,,0.01838802732527256,0.9212648868560791,0.838534951210022,0.01838802732527256,0.9212648868560791,0.838534951210022
,,,,,,,,,,,,,,,,,,,,,,,,,,0.015371330082416534,0.8424931168556213,0.7994392514228821,0.015371330082416534,0.8424931168556213,0.7994392514228821
,,,,,,,,,,,,,,,,,,,,,,,,,,0.015198631212115288,0.8148214817047119,0.7803263664245605,0.015198631212115288,0.8148214817047119,0.7803263664245605
,,,,,,,,,,,,,,,,,,,,,,,,,,0.015200445428490639,0.7935810089111328,0.7488216161727905,0.015200445428490639,0.7935810089111328,0.7488216161727905
,,,,,,,,,,,,,,,,,,,,,,,,,,0.015943920239806175,0.7868199348449707,0.7356855273246765,0.015943920239806175,0.7868199348449707,0.7356855273246765
,,,,,,,,,,,,,,,,,,,,,,,,,,0.015302227810025215,0.7672592401504517,0.7169871926307678,0.015302227810025215,0.7672592401504517,0.7169871926307678
8789456000.0,111.55,7.199999809265137,6188634112.0,18.464574969876175,224.0,0.0653076171875,3686400.0,7697.031448841095,0.002439923584461212,0.01519775390625,2.309542417526245,-0.022281315177679062,0.7151563763618469,-0.023095425218343735,0.0008141119033098221,0.0,0.004263795912265778,1.1841298341751099,0.8108360380695202,5.718756198883057,2.431303024291992,5.723019599914551,2.722576141357422,887.3207223415375,4.208497047424316,,,,,,
8789456000.0,122.94,7.800000190734863,6391222784.0,2458.0681653389647,225.0,0.0634765625,3702784.0,7703.696845769882,0.0029974589124321938,0.0269775390625,2.289949893951416,-0.023033851757645607,0.7073708772659302,-0.022899501025676727,-0.0001343507319688797,0.0,0.10876575112342834,1.1901614665985107,0.7975619887670651,5.565716743469238,2.401700973510742,5.674482345581055,2.6452081203460693,6.6653969287872314,4.197343111038208,,,,,,
8789456000.0,92.21,6.800000190734863,6391222784.0,2404.0401873780283,226.0,0.0616455078125,3719168.0,7710.5120396614075,0.0026927790604531765,0.0240478515625,2.3142640590667725,-0.02199365757405758,0.8354911804199219,-0.02314264141023159,0.0011489847674965858,0.0,-0.05098891258239746,1.2917759418487549,0.7949613997389381,5.557687759399414,2.568148136138916,5.506699085235596,2.852787971496582,6.8151938915252686,4.1860456466674805,,,,,,
8789456000.0,119.96,7.0,6391222784.0,2354.921226085776,227.0,0.057373046875,3735552.0,7717.469384908676,0.0025491705164313316,0.0233154296875,2.3157176971435547,-0.02194247767329216,0.6696624159812927,-0.02315717749297619,0.001214703544974327,0.0,-0.03038628399372101,1.159296989440918,0.8391710366597624,5.456124305725098,2.6182286739349365,5.425737380981445,2.890763282775879,6.957345247268677,4.218847274780273,,,,,,
8789456000.0,97.53,7.199999809265137,6391222784.0,2325.340829343588,228.0,0.0604248046875,3751936.0,7724.515233755112,0.0028476971201598644,0.02703857421875,2.316315174102783,-0.02286013402044773,0.7448092103004456,-0.02316315285861492,0.00030302139930427074,0.0,0.010450554080307484,1.2193199396133423,0.8112332962983901,5.277342796325684,2.570892810821533,5.287793159484863,2.8064351081848145,7.045848846435547,4.2079150676727295,,,,,,
8789456000.0,104.8,7.199999809265137,6391222784.0,2407.663095576194,229.0,0.0616455078125,3768320.0,7731.320172548294,0.003648784477263689,0.03253173828125,2.2782530784606934,-0.02211851440370083,0.8290390968322754,-0.02278253063559532,0.0006640180945396423,0.0,-0.044106751680374146,1.2862796783447266,0.8104501048909899,5.491008758544922,2.621411085128784,5.446902275085449,2.954429864883423,6.804938793182373,4.204453229904175,,,,,,
8789456000.0,95.13,7.0,6391222784.0,2423.026598208357,230.0,0.05859375,3784704.0,7738.081963777542,0.0037292141932994127,0.0400390625,2.358023166656494,-0.02097243070602417,0.7086727023124695,-0.023580234497785568,0.0026078009977936745,0.0,-0.020159870386123657,1.1911616325378418,0.8277990267790601,5.292949676513672,2.6178719997406006,5.27278995513916,2.870469331741333,6.761791229248047,4.19926905632019,,,,,,
8789456000.0,135.31,7.0,6391222784.0,2359.7432947857587,231.0,0.054931640625,3801088.0,7745.02509188652,0.00523012550547719,0.0557861328125,2.3031678199768066,-0.022180598229169846,0.6264755725860596,-0.023031678050756454,0.0008510798215866089,0.0,0.024728327989578247,1.1163138151168823,0.8567688887810827,5.1967692375183105,2.70883846282959,5.221497058868408,2.9496302604675293,6.9431281089782715,4.200846195220947,,,,,,
8789456000.0,125.68,6.599999904632568,6391222784.0,2384.927888386746,232.0,0.05615234375,3817472.0,7751.894901275635,0.002924417145550251,0.02703857421875,2.348163604736328,-0.020560411736369133,0.6764010190963745,-0.023481637239456177,0.0029212236404418945,0.0,-0.020349590107798576,1.162097692489624,0.8351802627836377,5.310516357421875,2.6239352226257324,5.290166854858398,2.86245059967041,6.86980938911438,4.21181845664978,,,,,,
8789456000.0,128.2,6.400000095367432,6391222784.0,2394.259612117931,233.0,0.0543212890625,3833856.0,7758.737935304642,0.007320538628846407,0.08538818359375,2.2796664237976074,-0.02172943763434887,0.7323799729347229,-0.022796666249632835,0.0010672304779291153,0.0,-0.01773267239332199,1.2071516513824463,0.8189492153238584,5.558648109436035,2.6124958992004395,5.540915489196777,2.8370163440704346,6.843034029006958,4.191709756851196,,,,,,
8789456000.0,122.8,7.0,6391222784.0,2429.8171646250435,234.0,0.062255859375,3850240.0,7765.48082947731,0.005071106366813183,0.0570068359375,2.275744915008545,-0.021080391481518745,0.708574116230011,-0.022757450118660927,0.0016770567744970322,0.0,-0.03881169483065605,1.187296986579895,0.829836343683042,5.871807098388672,2.6246964931488037,5.8329949378967285,2.878232717514038,6.742894172668457,4.203593969345093,,,,,,
8789456000.0,128.39,7.800000190734863,6391222784.0,2414.381953776882,235.0,0.0494384765625,3866624.0,7772.266831159592,0.004420566372573376,0.041748046875,2.3430633544921875,-0.023003343492746353,0.5748456120491028,-0.023430634289979935,0.00042729172855615616,0.0,0.10262523591518402,1.0690276622772217,0.8340697379334975,5.560665130615234,2.4600868225097656,5.663290977478027,2.6243772506713867,6.786001682281494,4.200466632843018,,,,,,
8789456000.0,142.16,7.0,6391222784.0,2444.516896037519,236.0,0.0531005859375,3883008.0,7778.9691779613495,0.0026479526422917843,0.02484130859375,2.367983341217041,-0.023078106343746185,0.6277682781219482,-0.023679833859205246,0.0006017270497977734,0.0,-0.037765052169561386,1.1108119487762451,0.834869308297216,5.818151950836182,2.509687662124634,5.780386924743652,2.7335479259490967,6.7023468017578125,4.19756007194519,,,,,,
8789456000.0,141.9,7.099999904632568,6391222784.0,2433.95230415965,237.0,0.042724609375,3899392.0,7785.700616359711,0.002821224508807063,0.02630615234375,2.3332149982452393,-0.02249959483742714,0.5489116907119751,-0.023332148790359497,0.0008325530216097832,0.0,0.01969268172979355,1.0416536331176758,0.8429084922503909,5.291927814483643,2.4436683654785156,5.311620712280273,2.62813138961792,6.731438398361206,4.1992223262786865,,,,,,
8789456000.0,154.04,7.300000190734863,6391222784.0,2421.903390764576,238.0,0.0469970703125,3915776.0,7792.46554350853,0.0029199174605309963,0.02655029296875,2.305123805999756,-0.022604957222938538,0.5512083172798157,-0.02305123768746853,0.0004462841898202896,0.0,0.04859829321503639,1.0400751829147339,0.8466324170252466,5.256202697753906,2.4587278366088867,5.304800987243652,2.6558144092559814,6.76492714881897,4.203604459762573,,,,,,
8789456000.0,138.12,7.199999809265137,6391222784.0,2378.982510433486,239.0,0.0506591796875,3932160.0,7799.352521419525,0.0033625499345362186,0.0382080078125,2.28369402885437,-0.02239607647061348,0.6081750988960266,-0.022836942225694656,0.0004408610984683037,0.0,0.02239701710641384,1.0805550813674927,0.8546711875138013,5.510765075683594,2.596646308898926,5.5331621170043945,2.834465265274048,6.886977910995483,4.200725555419922,,,,,,
8789456000.0,125.76,7.199999809265137,6391222784.0,2365.8511958467016,240.0,0.050048828125,3948544.0,7806.277724504471,0.0023587653413414955,0.0172119140625,2.3271431922912598,-0.021888788789510727,0.5845386981964111,-0.023271432146430016,0.0013826433569192886,0.0,-0.0319608673453331,1.0660922527313232,0.8449967329359854,5.288887977600098,2.5260677337646484,5.256927013397217,2.70784854888916,6.925203084945679,4.202587604522705,,,,,,
8789456000.0,154.46,7.599999904632568,6391222784.0,2379.6955274126944,241.0,0.047607421875,3964928.0,7813.162638902664,0.005023419391363859,0.05401611328125,2.2595129013061523,-0.022511593997478485,0.527488112449646,-0.022595128044486046,8.35321843624115e-05,0.0,0.0523742251098156,1.0101571083068848,0.8663215167361502,5.195195198059082,2.5609652996063232,5.247569561004639,2.7628564834594727,6.884914398193359,4.206249952316284,,,,,,
8789456000.0,148.63,6.199999809265137,6391222784.0,2329.3172101685504,242.0,0.040283203125,3981312.0,7820.196459770203,0.0044536348432302475,0.04913330078125,2.3081111907958984,-0.020117545500397682,0.5721810460090637,-0.023081112653017044,0.002963567618280649,0.0,-0.03181638568639755,1.0582990646362305,0.8551740066331753,5.0522308349609375,2.5550689697265625,5.02041482925415,2.7808992862701416,7.033820867538452,4.2003655433654785,,,,,,
8789456000.0,149.52,6.5,6391222784.0,2360.5936132952725,243.0,0.054931640625,3997696.0,7827.137086868286,0.0025518189650028944,0.01763916015625,2.248305559158325,-0.020590566098690033,0.655880331993103,-0.022483056411147118,0.0018924921751022339,0.0,-0.023887425661087036,1.1436936855316162,0.8380352072889306,5.447744369506836,2.5868313312530518,5.423856735229492,2.8418378829956055,6.940627098083496,4.200875997543335,,,,,,
8789456000.0,109.7,7.599999904632568,6391222784.0,2391.656366758146,244.0,0.0531005859375,4014080.0,7833.987569332123,0.003128442680463195,0.02362060546875,2.242784023284912,-0.021641051396727562,0.5509713888168335,-0.022427840158343315,0.0007867848034948111,0.0,0.06557589769363403,1.048341989517212,0.862452661805456,5.2596116065979,2.625298023223877,5.325187683105469,2.826681613922119,6.85048246383667,4.206692457199097,,,,,,
8789456000.0,156.37,7.0,6391222784.0,2383.1697528233253,245.0,0.05615234375,4030464.0,7840.862446784973,0.004130150657147169,0.03704833984375,2.2410926818847656,-0.0204765722155571,0.6946972012519836,-0.022410923615098,0.0019343513995409012,0.0,0.011437900364398956,1.173120379447937,0.8228742915117409,5.329938888549805,2.5381674766540527,5.341377258300781,2.7874157428741455,6.874877452850342,4.197660207748413,,,,,,
8789456000.0,105.81,6.900000095367432,6391222784.0,2409.4476006897835,246.0,0.0537109375,4046848.0,7847.662345647812,0.003363726893439889,0.03265380859375,2.2594571113586426,-0.019910916686058044,0.6176348328590393,-0.022594571113586426,0.0026836562901735306,0.0,-0.08905525505542755,1.107208013534546,0.855445451483418,5.3976240158081055,2.662324905395508,5.308568954467773,2.9121479988098145,6.799898862838745,4.200542211532593,,,,,,
8789456000.0,152.53,6.599999904632568,6391222784.0,2408.3690176527225,247.0,0.0482177734375,4063232.0,7854.4652898311615,0.00251528387889266,0.02166748046875,2.2663707733154297,-0.021773722022771835,0.5886861085891724,-0.02266370877623558,0.0008899839594960213,0.0,-0.04242609441280365,1.073952555656433,0.8474130450916508,5.4186811447143555,2.5388894081115723,5.376255035400391,2.749326705932617,6.802944183349609,4.192974328994751,,,,,,
8789456000.0,124.72,7.599999904632568,6391222784.0,2422.408632638969,248.0,0.0616455078125,4079616.0,7861.228806018829,0.004263491369783878,0.04364013671875,2.2241322994232178,-0.02150542289018631,0.7171757221221924,-0.022241324186325073,0.0007358998991549015,0.0,0.016762126237154007,1.197598934173584,0.8131129504475532,5.9038286209106445,2.5381150245666504,5.920590877532959,2.770267963409424,6.763516187667847,4.206902503967285,,,,,,
8789456000.0,135.14,6.099999904632568,6391222784.0,2436.100675533876,249.0,0.0579833984375,4096000.0,7867.9543080329895,0.0028539379127323627,0.023681640625,2.1776657104492188,-0.021006479859352112,0.7819040417671204,-0.021776655688881874,0.0007701760623604059,0.0,-0.08377388119697571,1.241140604019165,0.7976643669802981,5.7529497146606445,2.458813428878784,5.66917610168457,2.759211540222168,6.725502014160156,4.2057178020477295,,,,,,
8789456000.0,116.07,6.800000190734863,6391222784.0,2437.733188000004,250.0,0.0543212890625,4112384.0,7874.675306081772,0.0025192464236170053,0.0201416015625,2.2749063968658447,-0.021461904048919678,0.662187933921814,-0.02274906449019909,0.0012871595099568367,0.0,0.021345045417547226,1.148703694343567,0.8332587716107647,5.239530086517334,2.563983201980591,5.2608747482299805,2.813108205795288,6.720998048782349,4.183308124542236,,,,,,
8789456000.0,117.83,6.099999904632568,6391222784.0,2388.176294347889,251.0,0.04638671875,4128768.0,7881.5357711315155,0.0021172892302274704,0.01495361328125,2.295978546142578,-0.02286759950220585,0.637090802192688,-0.022959787398576736,9.218696504831314e-05,0.0,-0.07803336530923843,1.121720314025879,0.8356677775454802,4.867250442504883,2.541644334793091,4.789217472076416,2.767090082168579,6.860465049743652,4.188862085342407,,,,,,
8789456000.0,125.29,6.800000190734863,6391222784.0,2381.0028871612244,252.0,0.045166015625,4145152.0,7888.416905164719,0.0033259852789342403,0.02911376953125,2.238178253173828,-0.02214772067964077,0.5515491962432861,-0.022381780669093132,0.0002340618520975113,0.0,-0.013215074315667152,1.0472168922424316,0.8427380587087396,4.771256923675537,2.372030735015869,4.758041858673096,2.640735626220703,6.881134033203125,4.183117628097534,,,,,,
8789456000.0,116.85,7.199999809265137,6391222784.0,2400.1039658073387,253.0,0.0604248046875,4161536.0,7895.243276119232,0.004562563728541136,0.0421142578125,2.1500697135925293,-0.02029423601925373,0.7488646507263184,-0.02150069549679756,0.001206458080559969,0.0,0.08670023083686829,1.219544768333435,0.8181942944313294,5.280161380767822,2.620643138885498,5.366861820220947,2.860184669494629,6.82637095451355,4.192524194717407,,,,,,
8789456000.0,120.68,7.699999809265137,6391222784.0,2385.8172477847006,254.0,0.0634765625,4177920.0,7902.110524654388,0.0036501723807305098,0.0306396484375,2.155186176300049,-0.02017282508313656,0.6946439146995544,-0.021551860496401787,0.0013790363445878029,0.0,0.05545717477798462,1.1831574440002441,0.8315839437730524,5.538768768310547,2.6862058639526367,5.594225883483887,2.8830406665802,6.86724853515625,4.192028522491455,,,,,,
8789456000.0,114.37,6.900000095367432,6391222784.0,2390.4683292885456,255.0,0.0677490234375,4194304.0,7908.964411735535,0.004472748376429081,0.0433349609375,2.1738946437835693,-0.01892929896712303,0.7235846519470215,-0.021738944575190544,0.0028096456080675125,0.0,-0.01214339304715395,1.1949554681777954,0.8274803737905705,5.815948009490967,2.6300156116485596,5.803804874420166,2.876951217651367,6.85388708114624,4.187847852706909,,,,,,
,,,,,,,,,,,,,,,,,,,,,,,,,,0.026291612535715103,0.7358281016349792,0.6651215553283691,0.026291612535715103,0.7358281016349792,0.6651215553283691
,,,,,,,,,,,,,,,,,,,,,,,,,,0.023235678672790527,0.6738330125808716,0.6316142082214355,0.023235678672790527,0.6738330125808716,0.6316142082214355
,,,,,,,,,,,,,,,,,,,,,,,,,,0.02272733300924301,0.6526584029197693,0.6159582734107971,0.02272733300924301,0.6526584029197693,0.6159582734107971
,,,,,,,,,,,,,,,,,,,,,,,,,,0.022588176652789116,0.6315553784370422,0.5885883569717407,0.022588176652789116,0.6315553784370422,0.5885883569717407
,,,,,,,,,,,,,,,,,,,,,,,,,,0.022054357454180717,0.6130589842796326,0.5666733980178833,0.022054357454180717,0.6130589842796326,0.5666733980178833
,,,,,,,,,,,,,,,,,,,,,,,,,,0.022281603887677193,0.5990530252456665,0.5533267259597778,0.022281603887677193,0.5990530252456665,0.5533267259597778
8789492000.0,112.21,6.900000095367432,6188634112.0,18.444562162730747,256.0,0.074462890625,4210688.0,8797.247899055481,0.0037103001959621906,0.0323486328125,2.1219394207000732,-0.020297400653362274,0.8752319812774658,-0.021219393238425255,0.000921991653740406,0.0,0.07171234488487244,1.3175233602523804,0.7939984251004648,5.459272384643555,2.6458349227905273,5.530984878540039,2.9028401374816895,888.2834873199463,4.214124441146851,,,,,,
8789492000.0,84.77,7.300000190734863,6391222784.0,2365.3596613544687,257.0,0.064697265625,4227072.0,8804.17454123497,0.004286398179829121,0.0450439453125,2.244530200958252,-0.02030346915125847,0.6976304054260254,-0.022445302456617355,0.0021418342366814613,0.0,0.03996872901916504,1.1853712797164917,0.8267996741746553,5.204621315002441,2.6175954341888428,5.244589805603027,2.8482635021209717,6.926642179489136,4.1913838386535645,,,,,,
8789492000.0,114.15,7.300000190734863,6391222784.0,2392.3133723224432,258.0,0.0665283203125,4243456.0,8811.023142337799,0.002152946311980486,0.013427734375,2.233374834060669,-0.02116072177886963,0.730190098285675,-0.022333748638629913,0.0011730268597602844,0.0,0.03661108762025833,1.201712965965271,0.8260718881164807,5.4920430183410645,2.644174337387085,5.528654098510742,2.881481885910034,6.8486011028289795,4.19684910774231,,,,,,
8789492000.0,113.3,6.599999904632568,6391222784.0,2399.628345860592,259.0,0.0592041015625,4259840.0,8817.850866317749,0.0033430298790335655,0.033935546875,2.2710394859313965,-0.02262939140200615,0.7136008739471436,-0.022710394114255905,8.100410923361778e-05,0.0,0.003295892383903265,1.1910775899887085,0.8201424358930229,5.270545959472656,2.583314895629883,5.273841857910156,2.8085086345672607,6.827723979949951,4.196340560913086,,,,,,
